signal_id,label,anomaly_type,sample_000,sample_001,sample_002,sample_003,sample_004,sample_005,sample_006,sample_007,sample_008,sample_009,sample_010,sample_011,sample_012,sample_013,sample_014,sample_015,sample_016,sample_017,sample_018,sample_019,sample_020,sample_021,sample_022,sample_023,sample_024,sample_025,sample_026,sample_027,sample_028,sample_029,sample_030,sample_031,sample_032,sample_033,sample_034,sample_035,sample_036,sample_037,sample_038,sample_039,sample_040,sample_041,sample_042,sample_043,sample_044,sample_045,sample_046,sample_047,sample_048,sample_049,sample_050,sample_051,sample_052,sample_053,sample_054,sample_055,sample_056,sample_057,sample_058,sample_059,sample_060,sample_061,sample_062,sample_063,sample_064,sample_065,sample_066,sample_067,sample_068,sample_069,sample_070,sample_071,sample_072,sample_073,sample_074,sample_075,sample_076,sample_077,sample_078,sample_079,sample_080,sample_081,sample_082,sample_083,sample_084,sample_085,sample_086,sample_087,sample_088,sample_089,sample_090,sample_091,sample_092,sample_093,sample_094,sample_095,sample_096,sample_097,sample_098,sample_099,sample_100,sample_101,sample_102,sample_103,sample_104,sample_105,sample_106,sample_107,sample_108,sample_109,sample_110,sample_111,sample_112,sample_113,sample_114,sample_115,sample_116,sample_117,sample_118,sample_119,sample_120,sample_121,sample_122,sample_123,sample_124,sample_125,sample_126,sample_127,sample_128,sample_129,sample_130,sample_131,sample_132,sample_133,sample_134,sample_135,sample_136,sample_137,sample_138,sample_139
ECG_0000,0,normal,0.009141804,0.0024154074,0.08803396,0.122311726,0.059355408,0.0966238,0.15044034,0.14060634,0.1454998,0.10899882,0.1428925,0.116142154,0.066858895,0.06823148,0.017370999,-0.052029915,-0.041195776,-0.10141076,-0.059258386,-0.09125556,-0.08977457,-0.08928032,-0.0075410977,-0.016311808,0.013893074,0.057948746,0.12682942,0.16201265,0.19903591,0.22869347,0.30137855,0.23793158,0.23935115,0.22690037,0.2590672,0.25722596,0.19705975,0.14760682,0.11649072,0.12614988,0.092329666,0.048834797,-0.024575932,-0.03313308,-0.06906448,-0.09413501,-0.097153425,-0.13266893,-0.12785089,-0.14738837,-0.13419586,-0.10972335,-0.15039594,-0.08535109,-0.046251062,0.013361747,0.12407603,0.32972103,0.47722486,0.81167054,1.0387127,1.3504881,1.5300239,1.5512375,1.4048129,1.143969,0.8040474,0.51714814,0.3326019,0.14357574,0.008263716,-0.05301984,-0.089468755,-0.07594765,-0.10570786,-0.09976593,-0.1352477,-0.11089844,-0.08139329,-0.08557363,-0.031063126,-0.02650553,0.025796676,0.072170205,0.096488744,0.19564281,0.21366726,0.2710874,0.32271385,0.35249114,0.38199964,0.3734342,0.36910382,0.3759453,0.31582367,0.30353448,0.28132185,0.26011503,0.26765144,0.1924527,0.17232797,0.18850349,0.1080424,0.1147334,0.044180766,0.051996075,0.022324607,0.03993512,0.08074982,0.014497913,0.09435737,0.10634553,0.1006524,0.09415364,0.15699026,0.15300784,0.18544437,0.18318506,0.22844645,0.16453347,0.12582181,0.14061756,0.11521343,0.11850007,0.068956785,0.01937388,0.017538864,-0.09520182,-0.108487494,-0.1420039,-0.14477411,-0.1863124,-0.13038556,-0.15284003,-0.17952764,-0.14816476,-0.08456452,-0.040294528,0.026340676,0.08745043
ECG_0001,0,normal,0.012432574,0.003928787,0.0015590386,0.10212613,0.09349823,0.12322847,0.12824221,0.1458699,0.17798324,0.1393016,0.111751504,0.061738785,0.014637487,0.019825004,0.0017322428,0.026786758,-0.048350066,-0.043162096,-0.100590765,-0.1253061,-0.1131822,-0.090609215,0.019636754,-0.036317524,0.051897585,0.041424938,0.13880733,0.16259786,0.1819548,0.21454597,0.21748549,0.26350617,0.24106893,0.21454537,0.2022497,0.22853445,0.24785091,0.17761126,0.137666,0.115206875,0.10921209,0.039121643,-0.016938457,-0.006909256,-0.059702363,-0.05462299,-0.11779925,-0.17611086,-0.18926308,-0.0998879,-0.09115948,-0.13404758,-0.11817689,-0.031917624,-0.065351255,0.0056862724,0.1516301,0.27303463,0.50304615,0.7777189,1.0993261,1.4027591,1.527859,1.5529689,1.321971,1.1187071,0.7892122,0.49445426,0.28051805,0.13929117,0.07401138,-0.058813006,-0.060966242,-0.10538755,-0.11981083,-0.09039775,-0.10628666,-0.07553269,-0.104796164,-0.097171515,-0.05148215,0.00062715233,0.041985493,0.051090695,0.13507862,0.18788049,0.30327353,0.32701793,0.28269416,0.3304737,0.31813484,0.35866755,0.3912709,0.41451246,0.3445712,0.32732347,0.25658417,0.28515247,0.22378579,0.20373388,0.15736702,0.14669877,0.065998465,0.048596576,0.1360667,0.019536525,0.017921701,0.105213515,0.14269258,0.031170527,0.07027719,0.10946013,0.17033783,0.10792966,0.14746805,0.19221273,0.19150707,0.17124481,0.1763784,0.13046725,0.14938152,0.12724768,0.11557862,0.061064627,0.058049604,0.039049223,-0.021697342,-0.048986237,-0.087700285,-0.11420409,-0.15472656,-0.13551699,-0.1523587,-0.08337831,-0.088202804,-0.106121995,-0.11686166,-0.098810665,0.0021730387,0.007917032
ECG_0002,0,normal,0.014404594,-0.01872265,0.09334358,0.10772739,0.084573545,0.121543445,0.15451664,0.15166762,0.1372387,0.13148549,0.108951226,0.09738527,0.10902274,-0.04258551,-0.0037597886,-0.020955767,-0.04337848,-0.08380172,-0.13831355,-0.07991792,-0.032408193,-0.114868276,-0.018302498,-0.021531679,0.024903178,0.036925796,0.10082646,0.19005068,0.20413359,0.2677382,0.2724515,0.26329663,0.30703646,0.26448333,0.26542747,0.21445967,0.20247455,0.1518888,0.17091268,0.07128298,0.09350255,0.026820635,0.030526772,-0.017571848,-0.017945671,-0.078772426,-0.1704575,-0.14138539,-0.18337852,-0.16496414,-0.0975326,-0.109535985,-0.12764919,-0.10617247,-0.03115642,-0.0039687217,0.112196095,0.29423308,0.53785914,0.800885,1.0204602,1.3696656,1.5273024,1.5460675,1.4319625,1.0582715,0.79677606,0.5487459,0.2594148,0.19359334,0.057585005,0.006376297,-0.0790135,-0.06644956,-0.07792649,-0.11349415,-0.1153981,-0.10754434,-0.12606135,-0.0807191,-0.04934206,0.0048540644,0.06668302,0.051866256,0.12861367,0.22547731,0.20544167,0.2460451,0.31436065,0.36442676,0.36238086,0.4162576,0.4075066,0.40359142,0.38306722,0.41677746,0.31484798,0.22992676,0.30378583,0.20588608,0.18690926,0.18881316,0.07066253,0.055058517,0.024150958,0.034335114,0.06401437,0.06583175,0.063828796,0.023934549,0.0120215565,0.10084407,0.10432361,0.15131696,0.17588499,0.17303985,0.20126808,0.18940583,0.19629504,0.15057394,0.1511384,0.14114258,0.13322937,0.06591221,0.05953847,0.00069258444,-0.029886488,-0.03465336,-0.14908676,-0.15310079,-0.17754538,-0.2150203,-0.16978803,-0.12369034,-0.14394997,-0.111763686,-0.061293412,-0.02560774,-0.03563539,0.04064213
ECG_0003,0,normal,0.0027640914,0.008492984,0.047688417,0.04967869,0.09124245,0.12494869,0.17071266,0.20171672,0.10453838,0.14637496,0.08529423,0.10704931,0.060945377,-0.020512933,0.03119463,-0.04440116,-0.06827531,-0.10473686,-0.1052404,-0.076921076,-0.08990603,-0.058992572,-0.033359684,0.027943926,0.016459323,0.024207016,0.14287682,0.14110468,0.2200917,0.22727016,0.23319499,0.2605873,0.3132488,0.31362295,0.24266927,0.22816253,0.23276538,0.14744169,0.15121727,0.1058562,0.07944929,0.0075391033,-0.052297667,-0.10228742,-0.10608658,-0.11445592,-0.13209203,-0.08125986,-0.11503849,-0.17827848,-0.1324382,-0.14087434,-0.11521219,-0.07020118,-0.01356475,0.022350328,0.16424584,0.25061464,0.50338995,0.86055243,1.0958912,1.4035311,1.527887,1.551074,1.3817726,1.1150564,0.79112464,0.5439277,0.28131652,0.16928242,0.07909291,-0.00802528,-0.07047265,-0.07724351,-0.11924083,-0.09241407,-0.1773723,-0.12572286,-0.15988536,-0.12114506,-0.0038505164,0.020207798,0.015103884,0.038547236,0.04342807,0.16472878,0.30036178,0.28375912,0.2915043,0.3530476,0.31520936,0.36746907,0.38478708,0.37575382,0.3901679,0.35728723,0.34105262,0.26938125,0.28259268,0.2684852,0.15456836,0.12289577,0.15880385,0.086867616,0.11430394,0.044883132,0.09447664,0.054050688,0.06328744,0.11325907,0.07047155,0.0709798,0.105019964,0.15110539,0.10785361,0.18801674,0.16230094,0.21696387,0.108565286,0.14811715,0.10593269,0.11045241,0.11604351,0.07234764,0.036302123,0.0038922022,-0.020258576,-0.08979501,-0.068089455,-0.094326645,-0.12152868,-0.12831582,-0.14054756,-0.085121155,-0.13801628,-0.12690988,-0.11657576,-0.09640621,-0.0708954,-0.026629364
ECG_0004,0,normal,-0.00212012,0.043643784,0.06705469,0.071128726,0.144892,0.15787157,0.14181566,0.13050613,0.16245666,0.14022934,0.073066734,0.090768985,0.07273905,0.0074233986,0.009041022,-0.06989581,-0.012172718,-0.03520578,-0.093187414,-0.07885416,-0.15652636,-0.103542864,-0.053030707,-0.043839913,0.048174802,0.12843165,0.075561695,0.12592544,0.19371739,0.26410234,0.2004579,0.2575951,0.3093574,0.20176077,0.20215575,0.21064861,0.18486053,0.19718955,0.14847495,0.053383227,0.085494354,0.015214001,0.033622775,-0.058925543,-0.09166352,-0.08446172,-0.100408494,-0.12593381,-0.19878621,-0.1332747,-0.1738987,-0.12160372,-0.1493933,-0.062371287,-0.05633785,-0.0059509566,0.1537449,0.29212213,0.4847805,0.82615757,1.0759794,1.3614979,1.5332087,1.5150608,1.3976103,1.1041651,0.80215997,0.5718979,0.27564505,0.07693146,0.09486242,0.057458617,-0.07404327,-0.14896761,-0.11929515,-0.12906718,-0.12812784,-0.14905627,-0.08277416,-0.060558014,-0.08959855,0.014328151,0.09826884,0.08878115,0.12224418,0.17677355,0.24620703,0.21879244,0.31322318,0.32738128,0.41747284,0.37116358,0.4318394,0.34522462,0.3840615,0.35652986,0.2949314,0.2953543,0.2920338,0.20990331,0.13291396,0.14899977,0.09165762,0.08233771,0.06974167,0.006989635,0.002355519,0.06456812,0.039859008,-0.0106248045,0.104869984,0.107384555,0.09706065,0.09803047,0.17990062,0.17937313,0.24994215,0.19513515,0.19202419,0.1667063,0.18103,0.15399185,0.14616528,0.062084753,0.030841226,-0.005705347,-0.0026361714,-0.014587697,-0.10306016,-0.12694983,-0.1236575,-0.15238467,-0.12087848,-0.21372667,-0.1602046,-0.14116988,-0.16358061,-0.09434748,-0.061015934,-0.005998585
ECG_0005,0,normal,0.033389267,0.02626311,0.034596015,0.09238615,0.14936167,0.10641042,0.11928787,0.16685009,0.13935775,0.15401468,0.116101146,0.113858305,0.033825632,0.0340517,-0.0029749812,-0.06272787,-0.09916264,-0.05207181,-0.09614047,-0.12042619,-0.087114066,-0.03501187,-0.11263947,-0.056575082,-0.0009436844,0.11234812,0.119337745,0.17406885,0.1524491,0.18218276,0.25056353,0.25187224,0.2711806,0.24568342,0.24893214,0.22810037,0.2238112,0.19702177,0.092629,0.039214034,0.1000844,0.06817192,-0.035229333,-0.09589298,-0.06959401,-0.07277052,-0.06936845,-0.12388787,-0.1593698,-0.17620966,-0.14252591,-0.13763994,-0.13713332,-0.014298282,0.021415168,0.06660955,0.10470479,0.3105234,0.5223886,0.79589856,1.1266888,1.3795958,1.5473418,1.552758,1.3936999,1.0666603,0.8170178,0.5143329,0.2684674,0.19976936,0.09840416,0.021755395,-0.054228783,-0.05034372,-0.10961904,-0.11439657,-0.15523426,-0.103744894,-0.098349415,-0.1153728,-0.046302296,-0.009039639,0.09061512,0.11044874,0.1327073,0.18849726,0.2290757,0.26462516,0.27581865,0.33456364,0.33965516,0.3388793,0.39713943,0.39007476,0.3128425,0.34326732,0.3508739,0.32180914,0.2864333,0.22078446,0.15832148,0.117015675,0.12906846,0.10398634,0.11080923,0.09115859,0.04685841,0.012779935,0.045967374,0.07283446,0.07526216,0.081876636,0.12606344,0.122416645,0.13598439,0.1782362,0.1664043,0.18985263,0.18858922,0.13753127,0.1420895,0.1783726,0.073751144,0.014224809,-0.011951905,0.009541047,-0.025432704,-0.06306726,-0.052869253,-0.19439165,-0.1212018,-0.09816868,-0.18327351,-0.15756755,-0.15799022,-0.14452778,-0.1037578,-0.022613766,0.02156035,-0.010043622
ECG_0006,0,normal,0.057152096,0.034682225,0.11813116,0.09129583,0.1218182,0.14665343,0.24197073,0.1756322,0.12478589,0.16366008,0.10565557,0.07811589,0.09213602,0.03534681,0.011702997,-0.025831584,-0.042160805,-0.059895307,-0.14372091,-0.069760606,-0.11368928,-0.11212141,-0.045969676,-0.009156493,0.005937724,0.09344371,0.070594884,0.13884102,0.1691077,0.21437122,0.24549505,0.21988723,0.2764469,0.25320363,0.18382944,0.16459906,0.2001086,0.16618249,0.13812256,0.10579261,0.07679884,0.060969654,-0.037943788,-0.07525706,-0.10536477,-0.09202817,-0.085947864,-0.15231697,-0.2232693,-0.20053552,-0.16786055,-0.14539386,-0.11893293,-0.07460352,-0.041492272,0.06400827,0.11204978,0.25900325,0.5175661,0.73655295,1.1008897,1.3636112,1.5207181,1.5812991,1.36481,1.1819776,0.8077462,0.49270818,0.30896023,0.11702751,0.023981629,-0.007110223,-0.045217723,-0.109527506,-0.080358475,-0.08575526,-0.07934108,-0.09977223,-0.059258133,-0.13271719,-0.05430358,-0.03265791,0.04026507,0.06647886,0.1273792,0.2374989,0.22265773,0.28312635,0.30132338,0.3413666,0.3622186,0.3898385,0.416762,0.42775866,0.37573233,0.36463428,0.2864769,0.28739613,0.2838669,0.24559613,0.19002114,0.17611846,0.13345332,0.12861712,0.08087007,0.047488254,0.060900506,-0.03781172,0.067027144,-0.043134857,0.029620757,0.11276652,0.13280277,0.10266251,0.13346331,0.21000884,0.16394319,0.2498171,0.18033549,0.18395522,0.20503296,0.13917011,0.07854321,0.07443262,0.042835128,-0.0322745,-0.034035183,-0.08180469,-0.061564215,-0.11316826,-0.14156368,-0.14819728,-0.14274643,-0.12766893,-0.16539483,-0.14894502,-0.06082956,-0.07780843,-0.07606652,0.013348936
ECG_0007,0,normal,0.0139013855,-0.012306527,0.07240488,0.11616228,0.12911806,0.15464863,0.10447705,0.16002482,0.13692524,0.12010643,0.14262722,0.13718663,0.11870908,0.07385848,5.3693882e-05,-0.015669534,-0.029253615,-0.06900895,-0.08168897,-0.06504519,-0.08600718,-0.09073104,-0.05665153,0.0073413886,0.026832707,0.07871905,0.13096252,0.1398041,0.20934138,0.22713412,0.20008473,0.29339316,0.23969609,0.2016607,0.20923652,0.19272545,0.20204338,0.16459599,0.1311202,0.12522314,0.08022831,0.042021602,0.0076842126,-0.021613877,-0.13580365,-0.111628816,-0.18870258,-0.138295,-0.14835729,-0.11804977,-0.10724042,-0.12257875,-0.121692106,-0.061206117,-0.04797741,0.032486305,0.1619144,0.26813966,0.52737015,0.80294424,1.0605551,1.3897514,1.5460984,1.5367085,1.3606064,1.0943924,0.79837924,0.5472965,0.2781939,0.16244024,0.009281639,-0.02514328,-0.058595754,-0.017508568,-0.1513001,-0.07632005,-0.11793485,-0.10331948,-0.09661056,-0.06295143,-0.049376935,0.036973756,0.022994157,0.11758938,0.11303292,0.17922609,0.19559045,0.2843633,0.35164523,0.3367745,0.35613152,0.34295025,0.37492397,0.330553,0.3390574,0.35375145,0.36057323,0.37430876,0.23806067,0.26267606,0.19098543,0.1449892,0.13170815,0.09446543,0.07550117,0.045909207,0.00888198,0.0037973558,0.07513791,0.058016524,0.06344199,0.09946863,0.14232486,0.1429463,0.13514473,0.2056814,0.22583966,0.1973662,0.209603,0.20897293,0.19042972,0.15366226,0.12656394,0.09331426,0.01098332,0.029689442,-0.06703464,-0.083376914,-0.050187994,-0.08900002,-0.08845787,-0.15316205,-0.18400756,-0.15338647,-0.13234252,-0.11532773,-0.059959523,-0.07627644,-0.023000216,-0.02962426
ECG_0008,0,normal,0.01350981,0.03370819,0.043026026,0.087019905,0.11236119,0.12758453,0.19974536,0.14714023,0.13868694,0.071666606,0.08968433,0.0849162,0.044302396,0.07586547,-0.001602414,0.012402188,-0.05040716,-0.071527444,-0.08827579,-0.089643896,-0.03266485,-0.13844076,-0.10426371,-0.027971048,0.027178746,0.08921588,0.12505275,0.13952196,0.21722524,0.2466747,0.24265087,0.27900374,0.2628978,0.23446906,0.26152232,0.2266752,0.20051837,0.21700013,0.06769899,0.06410156,0.03441993,0.021642348,-0.012248887,-0.085317686,-0.102119796,-0.12652092,-0.049573567,-0.08532453,-0.16057079,-0.16032325,-0.17734557,-0.18590592,-0.11018768,-0.105696514,-0.0346854,-0.015478093,0.10947107,0.28933161,0.5141861,0.79514635,1.0495842,1.3861752,1.501135,1.5526365,1.383157,1.078877,0.8050232,0.54197955,0.32525158,0.14508523,0.09248767,0.011204101,-0.06958481,-0.068358816,-0.051966827,-0.06166595,-0.15927012,-0.14345063,-0.055613432,-0.10804167,-0.084442616,-0.021233575,0.049295094,0.08055044,0.11284702,0.16080727,0.2063792,0.2443273,0.37674043,0.34802052,0.38864088,0.36171645,0.37622407,0.35693023,0.28689247,0.3056076,0.2666843,0.22253892,0.21979745,0.25936574,0.18233976,0.18824355,0.1310598,0.1160847,0.045162387,0.07387773,0.072686695,0.032806695,0.07232678,0.08330316,0.06483808,0.06553041,0.08295304,0.14013055,0.16463667,0.14511684,0.17926165,0.19964561,0.19893882,0.21827054,0.19483615,0.10520055,0.15912111,0.061795145,0.075249635,0.010707347,-0.038724706,-0.11376984,-0.09444188,-0.16098812,-0.10406084,-0.09950804,-0.17334743,-0.13711423,-0.1571652,-0.13655193,-0.0707351,-0.066594474,0.018628191,-0.01443242
ECG_0009,0,normal,0.029980382,0.036537334,0.089393765,0.08068006,0.1163997,0.13222422,0.1215234,0.16995606,0.1655113,0.15239678,0.16261952,0.13628875,0.053629633,0.045605812,-0.015362301,-0.025550481,-0.07025079,-0.024042172,-0.07470095,-0.09629866,-0.048420142,-0.1339709,-0.10464042,0.012199237,0.028556962,0.07602614,0.07106826,0.15035231,0.24675922,0.24049483,0.24222033,0.23695241,0.24288124,0.18743761,0.24831705,0.2487213,0.1532096,0.152969,0.10650122,0.07767155,0.07163649,-0.029991897,0.013817472,-0.017482266,-0.08009814,-0.17511693,-0.15318885,-0.10238974,-0.23155813,-0.15984145,-0.17826948,-0.10452489,-0.12693469,-0.06364233,-0.01517607,0.08761486,0.12624204,0.29615414,0.45864812,0.81833464,1.0663836,1.343712,1.5244739,1.4867642,1.3903393,1.1491926,0.82329714,0.48335174,0.30314836,0.17157574,-0.009805358,-0.051264204,-0.03558888,-0.08275961,-0.097621486,-0.06469564,-0.108373545,-0.09591799,-0.01883863,-0.082707375,-0.06870287,0.0061861407,0.049858022,0.06782088,0.10139202,0.250329,0.23755462,0.24874403,0.33576936,0.33582085,0.35445166,0.39325693,0.3430463,0.38891566,0.42383236,0.36093318,0.30971646,0.27481928,0.24334802,0.21199818,0.17233865,0.17701599,0.066734046,0.118467934,0.0607987,0.069467634,0.017015632,0.089965045,0.09290962,0.09510524,0.035882015,0.124087095,0.13062255,0.08937724,0.15409745,0.17982864,0.19514635,0.18784733,0.18913004,0.21592247,0.19330776,0.049227644,0.09909037,0.07278491,-0.008659507,0.01149324,0.011102511,-0.092135966,-0.07920292,-0.14168133,-0.15323718,-0.100690015,-0.16571683,-0.13230698,-0.19154,-0.06182786,-0.07589036,-0.07091332,-0.016294854,-0.04226003
ECG_0010,0,normal,0.035476215,0.023895387,0.059398342,0.07934512,0.10046692,0.1565293,0.15428232,0.16964607,0.14573999,0.14998613,0.10394509,0.15970035,0.017840063,0.072242364,0.044382945,-0.051815905,0.014619907,-0.042779572,-0.056477726,-0.08891712,-0.09074549,-0.0751347,-0.032501422,0.030359665,0.032182336,0.041169442,0.13559295,0.17868386,0.20629372,0.2381338,0.22900128,0.22225435,0.22867262,0.20224965,0.2476963,0.22085334,0.18727855,0.084142946,0.10380563,0.14025731,0.050093263,0.043357916,-0.046331204,0.003063247,-0.07688589,-0.09199446,-0.053522896,-0.09388359,-0.15741527,-0.16721235,-0.1526358,-0.113365054,-0.109837994,-0.08761828,0.011875555,0.029101785,0.20131797,0.28759506,0.55675936,0.7933418,1.1180876,1.3387963,1.4995286,1.547442,1.4131328,1.1213763,0.77591735,0.49021092,0.26404855,0.09628621,0.049818866,0.014730095,-0.06228766,-0.15867491,-0.11570345,-0.12536445,-0.059550162,-0.15936877,-0.11188132,-0.025117654,-0.031267032,0.010251641,0.040125825,0.09352064,0.15569222,0.15674905,0.25409108,0.2295225,0.3181425,0.34445742,0.3435493,0.3757082,0.36312658,0.3461858,0.3558353,0.3138282,0.33068678,0.25552988,0.27701753,0.18417269,0.166684,0.13078853,0.15848471,0.102516636,0.06583728,0.07312079,-0.012390501,0.048812103,0.115466,0.07028792,0.08336206,0.115657315,0.14534505,0.07761138,0.10435658,0.17520134,0.1570178,0.22189026,0.17093787,0.11367821,0.118486315,0.05274901,0.10158976,0.072072916,0.03116957,0.04103412,0.009595372,-0.06465058,-0.15333577,-0.09568817,-0.11641901,-0.13573007,-0.1199957,-0.18111819,-0.0751408,-0.14648022,-0.07149325,-0.11605875,-0.06146919,0.045525614
ECG_0011,0,normal,-0.007826704,0.058812607,0.07262909,0.09094604,0.15880197,0.12858942,0.09318297,0.12599641,0.16253959,0.1464554,0.0694988,0.07107812,0.047426336,0.023450155,-0.037931688,-0.045102272,-0.07411662,-0.049498286,-0.061338257,-0.0941321,-0.09598989,-0.06465471,-0.06871459,-0.046080884,-0.0014637274,0.049468357,0.07595593,0.15591112,0.2085454,0.1681559,0.23788299,0.24352595,0.2649637,0.2509254,0.19697985,0.18548512,0.20136088,0.20367494,0.07479954,0.11700389,0.10572071,0.027949391,0.011895434,-0.06118999,-0.076146044,-0.14932308,-0.19362658,-0.11109382,-0.17776814,-0.16308157,-0.18446273,-0.1709611,-0.1118964,-0.09764827,-0.020800753,0.046104234,0.1419558,0.2920308,0.5505328,0.7505944,1.0875509,1.3945153,1.5630776,1.4909978,1.3741056,1.1609123,0.8297515,0.53687656,0.3003321,0.13780084,0.055180877,-0.026592446,-0.06316254,-0.08850451,-0.13032278,-0.10451661,-0.035002787,-0.16896424,-0.09044062,-0.099098936,-0.027444307,-0.005251027,0.059543934,0.118887536,0.13813657,0.2149952,0.15742038,0.31842616,0.31954333,0.3714305,0.32544184,0.35146567,0.3861809,0.3778257,0.37493578,0.3794833,0.26804623,0.319247,0.25590667,0.21350361,0.13953939,0.1646181,0.04630708,0.11205976,0.027426122,0.05976294,0.047250204,0.085192256,0.050180916,0.045493368,0.06612658,0.13739994,0.1345658,0.12596647,0.14773299,0.1218773,0.19011831,0.12973502,0.20294699,0.17557278,0.22813529,0.10223523,0.10553367,0.13167307,0.07964514,-0.012218613,-0.0196412,-0.05947895,-0.080836274,-0.13516703,-0.13575943,-0.1929534,-0.14538638,-0.13267273,-0.14222604,-0.16614892,-0.064313985,-0.054502573,-0.055341702,-0.0083834585
ECG_0012,0,normal,-0.04501979,0.0028526268,0.049386088,0.13094741,0.098701365,0.1548956,0.13045563,0.15753205,0.14176196,0.16078183,0.10046621,0.04563255,0.023419505,0.018457917,-0.03412608,-0.0139447795,-0.06623135,-0.0014060859,-0.13774334,-0.08364879,-0.11806729,-0.08365447,-0.039974753,-0.081437066,0.033847693,0.12559998,0.09725699,0.15884356,0.21740158,0.21085024,0.21970032,0.18185192,0.27394816,0.2479185,0.21020731,0.2271547,0.18296777,0.15695873,0.15941389,0.066480614,0.1014515,-0.0093904175,-0.024491683,0.017590469,-0.038744412,-0.09776755,-0.15151219,-0.15525496,-0.14602004,-0.14829004,-0.14559558,-0.12958698,-0.113112524,-0.11902031,-0.047635205,0.059966803,0.091280274,0.27918613,0.47860718,0.7859627,1.0775399,1.4048564,1.5403389,1.4942967,1.403613,1.0969291,0.79719925,0.5404332,0.2921102,0.17610054,0.023299003,-0.037589617,-0.08157631,-0.107831635,-0.07700489,-0.1016166,-0.07113181,-0.047625307,-0.1310825,-0.07418066,-0.08005239,-0.029975928,0.017785816,0.051907692,0.10080732,0.1767051,0.19124778,0.2959764,0.28075886,0.42338225,0.34849656,0.37854928,0.34294254,0.4295196,0.40002874,0.35585535,0.28059876,0.29635245,0.22201528,0.26348773,0.20794868,0.15238981,0.045639046,0.06310546,0.09282213,0.094545715,0.084100366,0.0023457217,0.06458714,0.09678298,0.031574592,0.09897633,0.12669216,0.12851244,0.09926152,0.15912166,0.16864492,0.17808732,0.16348895,0.15842377,0.15533555,0.14851293,0.099480726,0.06543498,0.046674073,-0.04895973,-0.012049169,-0.05955582,-0.088104144,-0.08538459,-0.19166428,-0.20422684,-0.14122598,-0.14638686,-0.13029815,-0.1315612,-0.074039325,-0.037459157,-0.01904178,-0.007790299
ECG_0013,0,normal,-0.06323039,0.056692015,0.102172285,0.113431536,0.09149719,0.15590303,0.17242101,0.19685811,0.11972053,0.1277965,0.13892871,0.0945307,0.03135815,0.04685273,0.020705568,-0.023612253,-0.04567075,-0.08040546,-0.04126353,-0.11677855,-0.10184832,-0.06852287,-0.017848717,-0.056597117,-0.012565994,0.0073808962,0.11184099,0.117500156,0.17511743,0.23561019,0.21788284,0.2570625,0.2457383,0.27147698,0.2548417,0.2025988,0.19541863,0.20412381,0.15302646,0.06472323,0.08970059,1.848616e-06,0.03776475,-0.009374952,-0.06386849,-0.095978685,-0.12956725,-0.11902108,-0.15934165,-0.14234865,-0.11671142,-0.1455162,-0.12516706,-0.11159191,-0.06407406,-0.022323776,0.15422517,0.33914024,0.54595965,0.7338397,1.1109445,1.4031978,1.511437,1.5366942,1.3232393,1.1281707,0.78260237,0.5370077,0.26002654,0.16560061,0.07726969,-0.04251662,-0.09599286,-0.15554316,-0.11797304,-0.1379283,-0.1689607,-0.10206407,-0.113660105,-0.108565316,-0.061403554,0.025491385,0.0547764,0.079721555,0.15093708,0.14620629,0.22872043,0.27513227,0.29419637,0.35215893,0.3386251,0.39168337,0.39835852,0.29082203,0.4021529,0.25551888,0.30252138,0.32079288,0.24613962,0.17563148,0.15086074,0.18033381,0.06108518,0.12647767,0.07053623,0.022387343,0.03333182,0.019589381,0.08152733,0.08829036,0.029749826,0.0871057,0.092581324,0.17634067,0.1143234,0.21701948,0.17746525,0.14767146,0.16007486,0.14766556,0.11828818,0.1380841,0.07177606,0.012313455,0.032513157,-0.04541794,-0.04892505,-0.08681202,-0.11543143,-0.054177728,-0.13138747,-0.1376507,-0.20273204,-0.16579224,-0.12894438,-0.14843325,-0.066728055,-0.10151922,-0.042152233,-0.017546995
ECG_0014,0,normal,0.0049299113,0.014400229,0.057393618,0.08701088,0.09585483,0.150242,0.15375677,0.1474352,0.13309008,0.15848646,0.10943552,0.08360748,0.068018675,0.085311845,-0.036864966,-0.0031554329,-0.10905343,-0.066126086,-0.03835941,-0.07509773,-0.079109944,-0.08566592,-0.04328592,-0.019237807,0.0031636106,0.059816483,0.11681157,0.12803282,0.16246548,0.17496154,0.24885088,0.26648372,0.26166824,0.28026867,0.24322386,0.23511714,0.2095933,0.17006531,0.1253005,0.17305666,0.056473512,0.012563836,0.008409654,-0.032542285,-0.1147088,-0.06701532,-0.12612213,-0.17270473,-0.11255477,-0.13064547,-0.18080571,-0.075346515,-0.086917356,-0.07606684,0.0155666815,0.037307017,0.1314878,0.2650638,0.52065533,0.7969203,1.0896393,1.336835,1.5290393,1.5315568,1.343472,1.0760143,0.83146375,0.452962,0.31302494,0.13497238,0.0857817,-0.033825267,-0.04210066,-0.10276989,-0.10656819,-0.098375395,-0.13630679,-0.085757986,-0.12997194,-0.06745545,-0.017087191,0.013153373,0.094181634,0.06071916,0.090989456,0.15120359,0.2475626,0.28565028,0.31135917,0.30540648,0.38504413,0.33964762,0.41657126,0.46405998,0.37743726,0.3644411,0.30621704,0.23572603,0.23757663,0.18683021,0.14026271,0.20119745,0.12691619,0.103998564,0.062918626,0.05297307,0.07976179,0.049135998,0.07146139,0.060437396,0.07106007,0.05700604,0.059144422,0.12968852,0.15652128,0.1303087,0.17742984,0.18414207,0.11571285,0.14426039,0.16874465,0.14685106,0.07400328,0.08247788,0.07457567,0.031979937,-0.029218797,-0.073578216,-0.108175285,-0.10017203,-0.1272267,-0.1261297,-0.14548388,-0.12161043,-0.13256568,-0.09415673,-0.067845255,-0.08957412,-0.08780557,0.04633934
ECG_0015,0,normal,0.0077000535,-0.017819647,0.044105843,0.117251016,0.10949616,0.120327346,0.18863158,0.11867501,0.122059226,0.14093173,0.1282242,0.10769869,0.09221511,0.0403716,0.018027237,-0.034027416,-0.05037735,-0.06941826,-0.079158954,-0.06658159,-0.06757433,-0.06752592,-0.068491116,-0.009645785,0.025902376,0.0743082,0.1770559,0.13533615,0.1993226,0.2478227,0.24006918,0.32025936,0.24337725,0.26103622,0.21662366,0.21281105,0.2079462,0.19820063,0.15079801,0.14440553,0.067183085,0.022575112,0.07650891,-0.028270788,-0.0941495,-0.12152358,-0.15157668,-0.11127971,-0.15914962,-0.14559487,-0.14477472,-0.10671723,-0.1320836,-0.10802812,-0.025410963,0.05055686,0.14230627,0.26058918,0.52352434,0.76030636,1.0735527,1.332216,1.5641761,1.5526534,1.401626,1.157585,0.8988886,0.47974187,0.28471133,0.13082962,0.021009717,-0.05134872,-0.07087478,-0.12736058,-0.09992936,-0.118929535,-0.107999265,-0.100422785,-0.08207079,-0.087495506,0.01886792,0.00038518212,-0.01918625,0.053551067,0.080148846,0.18155368,0.22409517,0.25665984,0.36861923,0.35556468,0.38382104,0.34845656,0.35182843,0.379441,0.37163392,0.2912585,0.31559363,0.2904546,0.24920374,0.19521536,0.16748679,0.14422087,0.12145432,0.11075168,0.10461498,0.04932877,0.03714058,0.06323578,0.07386592,0.053291515,0.10503647,0.12860103,0.15722749,0.190885,0.12883389,0.16930956,0.17880242,0.17958729,0.16091521,0.12714727,0.15930712,0.11218862,0.11119333,0.053903136,0.0109137,0.015696699,-0.021832578,-0.04216047,-0.023719035,-0.105887935,-0.11852737,-0.17733866,-0.18804732,-0.09868847,-0.16310784,-0.14901571,-0.09514291,-0.0681441,-0.060636446,-0.009114642
ECG_0016,0,normal,0.036881562,0.009435122,0.023710253,0.1223726,0.13265537,0.11707363,0.09914011,0.12775491,0.14436269,0.1695603,0.08541309,0.0902728,0.085132316,-0.03702378,0.034359306,-0.061724655,-0.042298436,-0.06524379,-0.053074304,-0.07323006,-0.15554741,-0.09239581,-0.040071186,-0.017525319,0.041071232,0.092193745,0.12911369,0.14462109,0.13126382,0.2021044,0.24962017,0.21741061,0.27365667,0.27856535,0.24439384,0.13144341,0.16213553,0.2293972,0.124829024,0.047107793,0.10708947,0.032940835,0.028537573,-0.031789158,-0.058808282,-0.089805394,-0.10237164,-0.071053885,-0.119088106,-0.19682592,-0.1294696,-0.09441758,-0.07060025,-0.0885591,0.0028084505,0.060360353,0.20950583,0.26237273,0.48797777,0.77343863,1.0744922,1.333834,1.4422611,1.5206097,1.3945569,1.105372,0.8725706,0.53141993,0.3455935,0.15715748,0.071326524,-0.010643976,-0.020821648,-0.08918429,-0.09509701,-0.1094905,-0.13107869,-0.103505164,-0.03312941,-0.08440515,-0.032182436,0.031085618,0.07089589,0.08397383,0.060862273,0.19653472,0.16116509,0.31481072,0.31337568,0.36908543,0.33497477,0.32981354,0.3896254,0.37732872,0.3516975,0.3494877,0.4040259,0.31506822,0.28714317,0.24493517,0.22805671,0.14382449,0.057087477,0.08695035,0.09654137,0.02906519,0.04553429,0.029353019,0.10060145,0.088801235,0.10087088,0.1178615,0.117359415,0.14346206,0.11927084,0.10329935,0.18296652,0.19224921,0.21667103,0.2188542,0.20362669,0.105298586,0.09804557,0.09213447,0.11986059,0.053070724,0.007221692,-0.071172565,-0.11579093,-0.09053939,-0.16609965,-0.1521649,-0.15288343,-0.09838599,-0.14604437,-0.19087487,-0.0788366,-0.08640898,-0.03228232,-0.0025665862
ECG_0017,0,normal,-0.0082108285,0.057325147,0.01953448,0.07858436,0.1384076,0.11726665,0.09834091,0.17015028,0.17969666,0.13324028,0.05768518,0.11398749,0.015081339,0.04367822,-0.023278195,-0.061046317,-0.0655156,-0.07814321,-0.10493814,-0.07209669,-0.09761078,-0.039446708,-0.035782143,-0.032602638,0.00076471234,0.019087862,0.11958213,0.1404117,0.11548807,0.19969739,0.2100981,0.29739437,0.20363507,0.20807302,0.27388692,0.2640597,0.17812869,0.15384893,0.15971223,0.036819097,0.014196233,0.024118165,0.041886076,-0.05316982,-0.069536954,-0.06668199,-0.060089745,-0.15668225,-0.1487234,-0.094754085,-0.18853544,-0.097834565,-0.13723074,-0.07268678,-0.039418455,0.0037877348,0.10283724,0.29316524,0.533066,0.7787301,1.0913023,1.3776698,1.4959928,1.5558416,1.4080565,1.1982775,0.803226,0.5172762,0.32993162,0.173888,0.03048169,-0.031116102,-0.04565126,-0.11569,-0.12229665,-0.1177927,-0.09255197,-0.1337926,-0.15543252,-0.13379116,-0.082548775,-0.04604278,0.03204997,0.047955934,0.11128128,0.15781106,0.21453409,0.31038773,0.32814988,0.33957908,0.3482073,0.3633918,0.39163515,0.3958619,0.3392152,0.34804228,0.26005426,0.29638386,0.2785227,0.211215,0.23816866,0.12308949,0.12525353,0.09153319,0.06918037,0.054729536,0.05403842,0.07554487,0.09687266,0.06625002,0.10578414,0.07816046,0.14145556,0.11467563,0.18754618,0.23521183,0.17480157,0.11675319,0.1639509,0.20867038,0.17311904,0.1427067,0.13887358,0.09225804,0.08043521,0.036250457,0.01929079,-0.048775047,-0.062137164,-0.12342043,-0.15112364,-0.09380879,-0.14295395,-0.122026935,-0.13169125,-0.13529286,-0.093640454,-0.022358503,-0.016904049,-0.05130964
ECG_0018,0,normal,-0.006457042,0.08708374,0.05910652,0.040080424,0.17467794,0.15616097,0.14450473,0.1389511,0.17847438,0.118330635,0.15095824,0.10907426,0.07221843,0.038779687,-0.0019033218,0.005118064,-0.07821859,-0.12130204,-0.06717869,-0.07082064,-0.06982146,-0.056620583,-0.053833548,0.0119485585,0.025376165,0.053899344,0.1015034,0.21166852,0.13460465,0.23076248,0.1867558,0.24687703,0.2417096,0.1887627,0.25225896,0.21195567,0.13750198,0.19799855,0.18427534,0.15133582,0.080800734,0.033921912,0.035234056,0.0103735905,-0.038557995,-0.12894179,-0.11725594,-0.12619132,-0.20250681,-0.13533492,-0.074679695,-0.109463915,-0.06247888,-0.07027351,-0.034336433,0.043966226,0.1078555,0.25595954,0.54118896,0.82379246,1.0594656,1.3895746,1.5225326,1.543845,1.3972827,1.1499991,0.8169907,0.57332355,0.31614503,0.1680404,0.021536427,0.045738548,-0.047790438,-0.06947255,-0.1582262,-0.14516155,-0.08529361,-0.1070479,-0.15757439,-0.04514454,-0.061079867,0.035691757,0.03405322,0.08976354,0.16773257,0.15410885,0.19796392,0.26481766,0.33310664,0.29916888,0.31199706,0.4011004,0.3637134,0.36657006,0.3107394,0.3265785,0.3207758,0.31794378,0.23252131,0.26933834,0.16313617,0.1290339,0.16485104,0.09895174,0.055628553,0.05350521,0.09141748,0.0940922,0.031036776,0.065044515,0.08402936,0.06962626,0.11680634,0.13769506,0.18903266,0.20511536,0.1685878,0.1761109,0.20032185,0.15415847,0.17418593,0.1326021,0.07953157,0.04901934,0.08731521,0.0039751036,0.0228504,-0.07494802,-0.08055879,-0.042426318,-0.16480142,-0.20194626,-0.11084239,-0.17097762,-0.13602464,-0.13527493,-0.08592506,-0.09395441,-0.03895945,0.013529015
ECG_0019,0,normal,-0.030248975,0.01261241,0.055098943,0.051230323,0.10520963,0.13925308,0.13461865,0.14195232,0.14540678,0.11491783,0.13724242,0.13588774,0.050946563,0.04897019,-0.0038427953,-0.015286519,-0.0052849147,-0.057384495,-0.13881433,-0.076137915,-0.047242787,-0.07550032,-0.014348294,-0.03237939,-0.017823266,0.07274782,0.058165837,0.1438562,0.2252592,0.15847595,0.19874422,0.21916306,0.25281882,0.24034205,0.28256193,0.25198725,0.21533637,0.17718042,0.15302205,0.080772616,0.09574836,-0.0008211603,0.020450668,-0.0045136423,-0.06623912,-0.10598206,-0.11128699,-0.22522235,-0.13915055,-0.15281636,-0.1443883,-0.10746603,-0.108924344,-0.10996716,-0.036381964,0.034554746,0.13577832,0.28973037,0.53438085,0.7500412,1.0944699,1.3992325,1.473103,1.5390402,1.3659148,1.1090473,0.7873649,0.52593213,0.3621003,0.111381955,0.011446005,-0.058079258,-0.010062638,-0.10473266,-0.1107498,-0.13256398,-0.15076281,-0.122709155,-0.026413688,-0.03453111,-0.07035452,0.012779471,0.011742608,0.03033131,0.16294926,0.21583642,0.2591309,0.25661662,0.3032882,0.36158815,0.37378296,0.36457965,0.3332306,0.3817531,0.398814,0.31102023,0.34016562,0.29997867,0.27816266,0.24577633,0.16283889,0.10101786,0.10272473,0.119281754,0.05592918,0.037337903,-0.003815241,0.10268554,0.08031198,0.0894144,0.11035642,0.11651471,0.11114703,0.13262245,0.14199944,0.24793483,0.19514145,0.16861548,0.19435799,0.14138806,0.20166193,0.11540722,0.12364609,0.10970377,0.055446506,0.011501848,-0.02603616,-0.061232165,-0.1065959,-0.12769112,-0.08869211,-0.14826792,-0.17301399,-0.16166228,-0.10239233,-0.09742919,-0.07716006,-0.07316396,-0.016360376,-0.019272279
ECG_0020,0,normal,-0.0077881296,0.06270906,0.09174876,0.06463749,0.09222067,0.13895026,0.19838908,0.09262666,0.15435381,0.093308836,0.09748062,0.08187555,0.052262723,0.018400364,0.0035619312,-0.042308807,-0.096132025,-0.049248192,-0.06302573,-0.06446256,-0.13045074,-0.05988489,-0.023937972,-0.042611986,0.027018106,0.065024756,0.16612466,0.20878421,0.13672324,0.29058665,0.20967235,0.27954423,0.28383335,0.22144283,0.25538588,0.22013079,0.21710809,0.17973168,0.17711535,0.10889407,0.06499582,0.065422095,0.012801237,-0.018143516,-0.09250265,-0.13205355,-0.14032795,-0.15800144,-0.12463232,-0.120136224,-0.14752336,-0.08573443,-0.065627195,-0.06845898,-0.056796636,0.079789385,0.13049978,0.28865775,0.49301165,0.7559285,1.0451397,1.3795207,1.5016394,1.6254367,1.350894,1.0824472,0.8298133,0.57689804,0.3088003,0.16648214,-0.008772118,-0.03934657,-0.09409366,-0.14771385,-0.106471226,-0.18776532,-0.16209601,-0.13177045,-0.12509957,-0.06440098,-0.03559898,0.02016621,0.059259802,0.11784672,0.13230638,0.19013765,0.24309473,0.2749623,0.29637563,0.32912192,0.33751133,0.38903725,0.3789823,0.35844162,0.34657636,0.3106359,0.35036808,0.29239097,0.2297742,0.24387349,0.16685939,0.107331626,0.14936699,0.07649502,0.059922323,0.0593946,0.085102946,0.050707232,0.019567056,0.08263384,0.066774964,0.15585119,0.1184433,0.07048431,0.16554733,0.22723055,0.2257417,0.23745812,0.14980029,0.19907871,0.1348669,0.14196798,0.07042495,0.05839077,0.02361605,0.035624407,-0.0023386492,-0.05123434,-0.12980759,-0.1235558,-0.15546331,-0.11892155,-0.11409455,-0.114481784,-0.15806004,-0.19988339,-0.1469788,-0.022789514,-0.045598898,-0.022487184
ECG_0021,0,normal,0.0492801,0.071569726,0.066253886,0.0852927,0.11392343,0.14250407,0.19460654,0.16276765,0.1677847,0.16966824,0.08142027,0.11545426,0.056040913,-0.041068614,-0.060499366,-0.05679467,-0.036321603,-0.069230296,-0.0800809,-0.031229481,-0.122301385,-0.06967543,-0.035084274,-0.033764116,0.027592711,0.020514272,0.15315732,0.1306009,0.24759594,0.2147946,0.26797074,0.24852493,0.2537961,0.23379266,0.24416155,0.23289676,0.17695042,0.16906019,0.12292219,0.17562202,0.06734012,0.07889713,-0.010479311,-0.03231929,-0.11220598,-0.11410785,-0.11698025,-0.09179668,-0.14155881,-0.10790413,-0.12364758,-0.07983996,-0.108452536,-0.0040542698,-0.04670177,0.009534228,0.096028715,0.35480353,0.5277832,0.77259856,1.1266695,1.3811654,1.5841252,1.4872158,1.3755153,1.106293,0.7552987,0.5628285,0.29875073,0.1715038,0.11732747,-0.029618533,-0.074519776,-0.08730255,-0.080363214,-0.13748188,-0.14135897,-0.083938956,-0.088801816,-0.13763508,-0.081528135,0.038389325,0.04874614,0.06075646,0.12725164,0.18143074,0.24982132,0.22996469,0.28306296,0.34728387,0.35904306,0.39354452,0.34491754,0.3890507,0.39919123,0.36155242,0.32517618,0.28715593,0.23061268,0.2174571,0.22146402,0.14595579,0.092036195,0.07784052,0.0782148,0.046953782,0.065384366,0.06579143,0.082210064,0.10902431,0.11120042,0.07118629,0.09137086,0.13526224,0.14129111,0.13474281,0.16521333,0.1682941,0.16023766,0.16224045,0.19188026,0.14121644,0.1827678,0.08283969,0.03520148,0.008791734,-0.018665463,-0.04648131,-0.026993608,-0.13956624,-0.10730843,-0.1387793,-0.19657302,-0.12305239,-0.097374745,-0.14341268,-0.09423795,-0.11719895,-0.07132544,0.031475443
ECG_0022,0,normal,-0.013992203,0.00035084135,0.072404236,0.07842241,0.103761815,0.15786897,0.11175312,0.122932665,0.15062623,0.16367243,0.15365537,0.072856545,0.09299929,0.0108899735,0.058132,-0.06026427,-0.012403936,-0.09233887,-0.025214503,-0.07201816,-0.1147092,-0.08451959,-0.020781903,0.01990341,0.024621442,0.0698525,0.13361073,0.15500328,0.14784878,0.19137962,0.24418272,0.2865885,0.3031979,0.27469942,0.24920656,0.24582122,0.18047565,0.16821459,0.116501234,0.06916981,0.08003851,0.038105566,0.016018933,-0.023714563,-0.06528573,-0.08399717,-0.124576785,-0.12699005,-0.17000262,-0.13832456,-0.12281692,-0.14875244,-0.105126314,-0.094469026,-0.047935084,-0.0012197979,0.17030355,0.31684336,0.5193228,0.8417881,1.0835215,1.4514875,1.5183154,1.5413065,1.3715428,1.1313384,0.83957756,0.5276012,0.36016423,0.15648934,0.054648865,-0.046291154,-0.049330212,-0.094883285,-0.12822783,-0.14377472,-0.042277224,-0.12355895,-0.14387056,-0.09723988,-0.04631342,0.00975226,0.053332187,0.10392077,0.113018125,0.19124685,0.20146754,0.2521233,0.28076017,0.30344352,0.39396438,0.3970471,0.41110274,0.3795162,0.38974795,0.2941092,0.34689546,0.29534602,0.2744715,0.23101777,0.1540612,0.10458545,0.097368695,0.10955545,0.092892036,0.017120933,0.021392288,0.028409041,0.04482142,0.025456,0.038663108,0.0745584,0.12106451,0.102117546,0.15135227,0.2006492,0.13941069,0.17633612,0.21113579,0.15916608,0.13931665,0.17014417,0.09942746,0.11085929,0.05677241,-0.0016175914,-0.011969507,-0.049925443,-0.058668464,-0.13065699,-0.13184364,-0.14685729,-0.12831564,-0.17692873,-0.10489415,-0.10370753,-0.13347769,-0.02919044,0.03346154,0.030089574
ECG_0023,0,normal,0.042809833,0.03617607,0.01567528,0.038771175,0.12553893,0.11792982,0.11916783,0.14821123,0.16447139,0.09100741,0.10304422,0.13810451,0.032619324,0.060507078,-0.0111962035,-0.009877327,-0.019338476,-0.05040583,-0.058337107,-0.12430559,-0.05081891,-0.094433226,-0.036431085,-0.0039285375,0.041296586,0.078621455,0.08554584,0.11055331,0.21282439,0.22134387,0.27161044,0.24878204,0.2125635,0.28029743,0.2294767,0.2336169,0.1810544,0.22214057,0.114928216,0.096509196,0.0732555,-0.00022530253,0.0053049447,0.008259397,-0.087278925,-0.088841386,-0.20577934,-0.14054467,-0.15760957,-0.17397067,-0.11042594,-0.13844931,-0.1120056,-0.08707674,-0.08964436,-0.0014315104,0.1611631,0.22157428,0.48021033,0.7706306,1.1415075,1.3835927,1.5084263,1.5727862,1.3612607,1.1504416,0.7737428,0.5632164,0.29467863,0.11845974,0.040019996,-0.010700897,-0.076727636,-0.074243866,-0.12747045,-0.101869315,-0.10916346,-0.11748233,-0.11340246,-0.07174701,-0.02825877,0.055206224,0.0648709,0.11290204,0.2250193,0.1965124,0.24228863,0.29183304,0.27802247,0.32577816,0.34685302,0.3958172,0.37657753,0.38248354,0.39906734,0.37284237,0.3161512,0.26993257,0.28971645,0.2428338,0.13548514,0.14013202,0.12369578,0.115972824,0.09949234,0.06667638,0.068382695,0.052030217,0.03532502,0.058479596,0.0818944,0.09817308,0.061909705,0.12561087,0.15651254,0.16045152,0.17105937,0.19716923,0.14802438,0.12287287,0.14608164,0.15816273,0.15924011,0.10118829,-0.00014446258,0.001696731,-0.018661192,-0.054211196,-0.07311581,-0.14171809,-0.13113153,-0.13240214,-0.12466996,-0.1703449,-0.14575817,-0.19881192,-0.1126138,-0.08117077,-0.06414878,0.005002919
ECG_0024,0,normal,-0.0016780715,-0.034161486,0.07198567,0.066245064,0.13245714,0.09723365,0.14750531,0.14159872,0.15509689,0.13833106,0.10885563,0.046720225,0.020561736,0.016897634,0.0030973228,-0.044498578,-0.03350194,-0.08102091,-0.11456228,-0.09810068,-0.077452905,-0.05910589,0.012134036,-0.031743202,0.024538549,0.08129647,0.11015745,0.1360308,0.14017622,0.2004438,0.20491806,0.19832583,0.23084806,0.2199008,0.25810143,0.24138956,0.1733618,0.16500466,0.08547788,0.09180189,0.0820015,0.057288304,-0.026002053,-0.008542271,-0.118035816,-0.1381245,-0.102006435,-0.08924316,-0.13341534,-0.15062602,-0.20872496,-0.1893354,-0.10279899,-0.08650283,-0.06531494,0.03449406,0.13578424,0.31320527,0.5072979,0.81947404,1.0894387,1.3570746,1.5570707,1.5042975,1.4679096,1.1314263,0.825934,0.5467715,0.36317673,0.17309009,-0.0016173744,0.02308289,-0.07211208,-0.08764782,-0.14835826,-0.104694426,-0.14197135,-0.112649545,-0.108683966,-0.018542852,0.014701426,-0.005252356,0.038607623,0.07241905,0.16554412,0.17116605,0.2151092,0.30007038,0.29214248,0.33796254,0.31459877,0.39751446,0.4400288,0.3999736,0.4102977,0.3215648,0.32809258,0.26173764,0.24882525,0.24278341,0.18672746,0.10714741,0.079279445,0.051173016,0.086932875,0.12007604,0.09169902,-0.0067734444,0.09817285,0.09440954,0.03496566,0.09011741,0.15134257,0.15404838,0.11555353,0.18721488,0.11433907,0.17584483,0.2145318,0.17226596,0.1415586,0.16191968,0.13785608,0.117025636,0.07013372,0.041108992,-0.0043729665,-0.05157307,-0.08660968,-0.12132441,-0.16945086,-0.17367117,-0.15790053,-0.13892978,-0.092179075,-0.118951306,-0.06386565,-0.033058856,-0.040504653,0.017875262
ECG_0025,0,normal,-0.00730555,0.07327901,0.084595725,0.058380276,0.12273221,0.18513255,0.14116819,0.16352507,0.16238019,0.10349145,0.1318318,0.050993342,0.04610925,0.06668593,0.014048408,-0.035385475,-0.03886447,-0.07444705,-0.08523454,-0.07005323,-0.10604973,-0.06764234,-0.053585384,-0.059244025,-0.00087076385,0.115558945,0.12240184,0.111341685,0.1404433,0.21240392,0.28396472,0.24452128,0.2939284,0.26187146,0.25472534,0.18328519,0.22860387,0.16276355,0.16711794,0.08220699,0.07534353,0.043100256,-0.009231641,-0.027961561,-0.08055697,-0.120167464,-0.07513179,-0.10790821,-0.17104425,-0.13236241,-0.16514982,-0.16420254,-0.07566699,-0.12688394,-0.0043342058,0.024946414,0.12598391,0.29716533,0.5206358,0.75783193,1.1107306,1.3639357,1.4874598,1.5285546,1.4249146,1.1704664,0.8360296,0.49530837,0.32158083,0.17484069,0.068305545,0.0045274063,-0.050987292,-0.09303484,-0.12823166,-0.17741856,-0.11224087,-0.11007305,-0.08343372,-0.11641955,-0.025415882,0.0549886,0.039041795,0.08177238,0.141634,0.24200375,0.19703989,0.2768088,0.28430173,0.32268506,0.36055037,0.41680846,0.43583247,0.3917811,0.35514587,0.42173004,0.30817622,0.27289835,0.20240992,0.26149982,0.21272022,0.22206081,0.07704461,0.13635306,0.07429336,0.08234221,0.0013919551,0.09414857,0.07913607,0.06515022,0.10067804,0.0762486,0.101093695,0.123632036,0.09924454,0.19474536,0.2142119,0.16148917,0.19083919,0.16374792,0.16637495,0.11641198,0.08211077,0.10928669,0.041987333,0.06933102,-0.024970924,-0.087321274,-0.05248672,-0.095282614,-0.11127363,-0.1092938,-0.16902398,-0.14999096,-0.14054695,-0.15641978,-0.101877645,-0.02534694,-0.026441107,-0.040347286
ECG_0026,0,normal,-0.046674892,0.08355821,0.06281085,0.07467248,0.10966671,0.09136996,0.18929797,0.13830203,0.18702587,0.13613969,0.15939651,0.100509234,0.090474956,0.055987034,0.022044452,-0.015813105,-0.05924382,-0.015181242,-0.11282001,-0.089628555,-0.08378212,-0.05677921,-0.057101518,-0.0022335337,0.021677632,0.021054177,0.11114671,0.11803237,0.13462237,0.21987504,0.25176564,0.26592496,0.27173355,0.19333588,0.19975732,0.28256243,0.16906191,0.19113675,0.12061703,0.109022275,0.051034417,0.0493864,-0.0005074177,-0.05354661,-0.104070224,-0.092662446,-0.15967785,-0.12655236,-0.06942375,-0.10891064,-0.12131902,-0.13123022,-0.16484386,-0.11542954,0.0063439026,0.0088354,0.111352734,0.2799033,0.4713384,0.74581915,1.0876846,1.3337888,1.5029109,1.510215,1.399147,1.1132048,0.80915195,0.54892707,0.30260146,0.14096725,0.060647815,0.001024713,-0.06629739,-0.08844424,-0.13343434,-0.14630099,-0.0993557,-0.10230637,-0.086502045,-0.06786761,-0.043380287,0.014244606,0.06474155,0.11095918,0.1293406,0.22264342,0.23460314,0.28968388,0.3167541,0.3465054,0.33996552,0.3974293,0.4671616,0.36709297,0.36857355,0.33356172,0.30636224,0.3363659,0.23546909,0.20539466,0.13604806,0.12679829,0.06747832,0.11156207,0.15618022,0.047158837,0.0008225313,0.0771061,0.03373282,0.10529793,0.07286379,0.08025899,0.11313817,0.16026868,0.14800376,0.15399086,0.17249914,0.14437383,0.19230404,0.11811233,0.1432031,0.15802085,0.11770497,0.09543406,0.04195208,0.043760132,0.0013807529,-0.0461547,-0.061468575,-0.091693915,-0.14626372,-0.18532878,-0.13682923,-0.12979068,-0.102689296,-0.14578703,-0.12116287,-0.051641315,-0.03569626,-0.056538295
ECG_0027,0,normal,0.011253537,-0.021957757,0.037162732,0.13464522,0.17263283,0.09921949,0.13672337,0.1513723,0.19944063,0.11980407,0.10220403,0.13927016,0.0536343,0.056080293,-0.04096857,-0.031388123,-0.10204621,-0.104307294,-0.060435854,-0.09125495,-0.09380187,-0.09131492,-0.05083702,-0.002642528,0.056230396,-0.010241649,0.0859073,0.15582222,0.18368804,0.22787012,0.24515533,0.24097799,0.23891284,0.2439485,0.2750501,0.20139657,0.19859397,0.17831178,0.18803568,0.09762284,0.09879624,0.06949955,-0.006523269,-0.046419486,-0.082436666,-0.10837036,-0.097669095,-0.1324465,-0.14115961,-0.18317245,-0.17189415,-0.06435859,-0.112016045,-0.09900411,0.010793092,0.04098234,0.14967495,0.28073138,0.4936396,0.7775346,1.0477167,1.3578968,1.5340223,1.5891646,1.3860562,1.0501434,0.81168956,0.61320376,0.33285362,0.1249882,0.0642675,-0.041281626,-0.10249941,-0.101313554,-0.10723484,-0.17664516,-0.1569049,-0.11534457,-0.112406194,-0.0644489,-0.08120643,0.014775661,0.001175518,0.13290437,0.080891185,0.14825702,0.24027045,0.32063958,0.31774274,0.35598093,0.3625642,0.34559682,0.36709863,0.34197953,0.3280824,0.35900033,0.2873075,0.29961905,0.21660353,0.22850856,0.16901237,0.1917251,0.12844189,0.12968142,0.049519893,0.059843503,0.021392655,0.037697956,0.047677442,0.04454178,0.044859573,0.056807943,0.04828445,0.10584498,0.17365119,0.12093765,0.1374204,0.23625645,0.16129822,0.18134551,0.17579626,0.15511508,0.0629441,0.07079265,-0.004643368,0.08205728,-0.07420648,-0.09097414,-0.12051297,-0.15910643,-0.092502,-0.07233839,-0.16371256,-0.18578605,-0.20251122,-0.12502065,-0.1034609,-0.08497721,-0.026919993,0.011889749
ECG_0028,0,normal,0.009692789,0.024131184,0.032471772,0.11406978,0.11826187,0.16233991,0.17030738,0.107440755,0.102977164,0.11192392,0.08482259,0.11546595,0.075417265,0.067389764,0.015240324,-0.019991653,-0.016266407,-0.058552463,-0.08356887,-0.045344196,-0.08077327,-0.07798265,-0.06935204,0.0094148405,0.063854426,0.06699513,0.15009761,0.09194888,0.18499033,0.21456599,0.21531929,0.32163987,0.25273263,0.23908162,0.2413667,0.1632724,0.17768215,0.20230871,0.122356795,0.08176584,0.10931781,0.0727478,0.0108990725,-0.05375144,-0.07974919,-0.124820165,-0.15313949,-0.1707093,-0.16675992,-0.18045737,-0.18978061,-0.122079924,-0.09964341,-0.024737168,-0.052190036,0.0414111,0.14171168,0.27725768,0.5255298,0.80587906,1.0990212,1.3528655,1.5144155,1.4926181,1.3592986,1.1015084,0.78079,0.5442164,0.34276146,0.122072995,0.055037547,-0.050044555,-0.07103285,-0.11157236,-0.091923766,-0.14084414,-0.09208031,-0.12302626,-0.119649105,-0.11389239,-0.037170246,0.0202088,0.04488793,0.1507873,0.17525756,0.17180781,0.21820849,0.28480348,0.28315088,0.37408385,0.37288612,0.38408253,0.40241137,0.43002173,0.37157238,0.34355664,0.36626443,0.31905895,0.24602881,0.21977265,0.18953428,0.16038103,0.07803232,0.046333395,0.045567594,0.029217048,0.03151055,0.06914743,0.050472695,0.072209366,0.04459556,0.08536419,0.13609463,0.15538394,0.13308915,0.17374249,0.24442953,0.18200156,0.15959749,0.16650125,0.15929204,0.13070424,0.107672885,0.034421038,0.015024536,0.004187691,-0.031318262,-0.07652461,-0.09460536,-0.112376176,-0.10639741,-0.14798817,-0.137467,-0.16242136,-0.11824058,-0.10642548,-0.06799543,-0.04403451,-0.015899181,-0.0029179675
ECG_0029,0,normal,0.0073484685,0.0655202,0.04595819,0.07524256,0.12332941,0.14814758,0.121881925,0.14785074,0.14318386,0.06813173,0.10992273,0.08808886,0.06006919,0.07689167,-0.033128228,-0.050989818,-0.13062418,-0.087071784,-0.097481206,-0.1050571,-0.05099838,-0.04303391,-0.041881636,-0.022794314,0.0575286,0.067920014,0.08631204,0.09956187,0.1734145,0.23840815,0.3054253,0.25197235,0.23175776,0.2157646,0.25714648,0.17041832,0.21698853,0.19734286,0.15431355,0.10004224,0.08698026,0.037668318,-0.027954357,0.015414452,-0.083115436,-0.0774231,-0.19585472,-0.10108267,-0.104155384,-0.14852072,-0.12610632,-0.11190654,-0.12596478,-0.059347283,-0.056398798,0.014265375,0.16613859,0.3141125,0.48200852,0.76061493,1.069831,1.3825138,1.4951419,1.5443522,1.4058815,1.1175213,0.844811,0.5218893,0.30044696,0.11999748,0.07704963,-0.042016834,-0.05139203,-0.093001954,-0.14156413,-0.13875358,-0.08094396,-0.10960491,-0.13043551,-0.06713339,-0.049149804,0.09697364,0.045242008,0.07220359,0.17496477,0.12580256,0.23057893,0.33054546,0.3048055,0.28709617,0.35016057,0.4200243,0.39308485,0.35317114,0.34588644,0.33015686,0.3318388,0.33017832,0.2872309,0.23329744,0.1437235,0.10968867,0.13472788,0.052243803,0.06542228,0.06728371,0.01669745,0.019378241,0.052716937,0.08142704,0.11317022,0.11742506,0.12068659,0.115149535,0.122699164,0.1535663,0.19076216,0.1926282,0.117396034,0.14814381,0.19266196,0.13761574,0.06610326,0.14839908,0.043035198,0.020197768,-0.014374481,-0.070566796,-0.11112216,-0.050556373,-0.10298364,-0.120353706,-0.13215141,-0.17627287,-0.09707755,-0.14299136,-0.08547133,-0.11462002,-0.09478702,0.009583291
ECG_0030,0,normal,-0.024272686,-0.026060097,0.08173871,0.15769722,0.15957327,0.12796965,0.14687048,0.1767248,0.17966767,0.124284066,0.11753588,0.10182684,0.081494264,0.030421948,-0.00025683802,0.01514383,-0.01597268,-0.058321964,-0.034038626,-0.10135116,-0.035539497,-0.05257697,0.053913444,-0.047450382,0.0060625514,0.08107669,0.122777164,0.2095535,0.16660269,0.24291639,0.27200302,0.27126345,0.22588854,0.29354632,0.27746758,0.24134433,0.20660861,0.17959476,0.13886309,0.12585564,0.07096609,0.007084418,-0.03606839,-0.062659,-0.06590109,-0.10150434,-0.116835974,-0.1243524,-0.16703792,-0.10544594,-0.15090078,-0.1416648,-0.09220969,-0.13085626,-0.055855915,0.061960265,0.08020764,0.31840003,0.5485339,0.77153856,1.0979533,1.3941072,1.5111377,1.559684,1.3633417,1.1058406,0.790529,0.5412981,0.3416017,0.14379148,0.00839683,-0.051502425,-0.050047204,-0.03553898,-0.09816888,-0.13208738,-0.099444605,-0.12283959,-0.111509554,-0.10504701,-0.0025129179,-0.08282399,0.060624067,0.069709994,0.12005371,0.23180309,0.20632538,0.2503105,0.3043796,0.3515106,0.34878242,0.329173,0.35583183,0.41677684,0.36868703,0.3604805,0.3131602,0.2702475,0.3059853,0.21397132,0.17037176,0.18241091,0.0970595,0.074766114,0.0724967,0.058167305,0.05861361,0.11285619,0.065628015,-0.0050240927,0.09111363,0.10034986,0.11978039,0.1449138,0.15396602,0.16731425,0.19685541,0.16626707,0.1519625,0.26242757,0.13505101,0.13824359,0.06374372,0.081218496,0.015906684,-0.00460644,0.004991717,-0.045378644,-0.07224266,-0.16734277,-0.07797296,-0.18076827,-0.10358327,-0.11552704,-0.11808347,-0.14334694,-0.08942224,-0.079565965,-0.032690063,-0.007461613
ECG_0031,0,normal,-0.061158024,0.06726845,0.06308721,0.07955077,0.10107665,0.14644298,0.11979243,0.08243835,0.15821773,0.15016323,0.11052159,0.05837131,0.06754604,-0.009521729,-0.027471198,-0.048772078,-0.026940128,-0.08352261,-0.09904789,-0.03111701,-0.07365482,-0.0586826,-0.05530836,-0.029567072,-0.038849283,0.097574964,0.12430943,0.14567435,0.18253714,0.23785317,0.19048782,0.23242758,0.22062935,0.30445883,0.2668575,0.15727602,0.15506533,0.16884114,0.12705195,0.066900626,0.1283749,0.041916363,0.009633848,-0.060858365,-0.05089683,-0.11210865,-0.13179658,-0.12104674,-0.19708823,-0.10150491,-0.13739778,-0.090233676,-0.13894387,-0.10345591,-0.06699689,0.040037014,0.1343098,0.27094045,0.47277772,0.7446243,1.0877444,1.346567,1.5045731,1.5800635,1.3810064,1.1582699,0.79851156,0.53836197,0.30519834,0.0983862,0.08938445,-0.02307583,-0.03949264,-0.11342333,-0.114925966,-0.14648606,-0.08535017,-0.10631236,-0.08914939,-0.03554771,-0.010076145,0.016312525,-0.0059635295,0.062751964,0.10224729,0.20285966,0.23286888,0.22899722,0.3026291,0.29427183,0.3604434,0.3267276,0.3976676,0.3896757,0.42368218,0.37238407,0.30831543,0.31457454,0.2137283,0.19074288,0.19366713,0.08477915,0.11761549,0.062000036,0.075228505,0.025827112,0.063552715,0.050685935,0.09755155,0.06651956,0.058265377,0.09180689,0.0781498,0.14971949,0.17252189,0.24296848,0.15980901,0.17449565,0.16312033,0.17807753,0.16797745,0.13363805,0.1412033,0.059215058,0.073488675,0.024822684,-0.02672112,-0.06898703,-0.016494915,-0.13871688,-0.12414182,-0.16751839,-0.09587147,-0.119568564,-0.15575396,-0.10231954,-0.08623907,-0.080937065,-0.010816324,0.011713716
ECG_0032,0,normal,0.006471253,0.03235734,0.07845206,0.100976415,0.11965927,0.116458714,0.19741811,0.11858102,0.15883291,0.124982916,0.16929697,0.06570392,0.042820077,0.0053197,0.0130496705,-0.06744266,-0.06661416,-0.13721526,-0.078399256,-0.10476423,-0.1288704,-0.036284152,-0.083447345,0.012232387,0.005711684,0.11655989,0.13334666,0.12080789,0.15914145,0.2339346,0.22925778,0.24504375,0.2928856,0.22885288,0.24332665,0.25199562,0.2247517,0.16802314,0.13255799,0.054467626,0.038344692,0.042090945,-0.008747107,-0.037850104,-0.04138745,-0.13631536,-0.1303817,-0.13371547,-0.1693431,-0.10647143,-0.11561185,-0.119958,-0.05285432,-0.12072781,-0.03237167,0.043518193,0.10489365,0.29389423,0.47000232,0.80333894,1.1209339,1.3687047,1.4695574,1.5046469,1.4004174,1.1208045,0.73368907,0.5683036,0.31096232,0.12474263,0.07638297,-0.03934742,-0.08253875,-0.08011189,-0.05654948,-0.07177287,-0.111638784,-0.10178307,-0.07641603,-0.11400275,-0.025441933,-0.028669955,0.046242632,0.07679831,0.14740019,0.18457675,0.13555841,0.27607936,0.32755604,0.35247305,0.3589605,0.4256536,0.39114395,0.39146703,0.39777848,0.35782567,0.29406232,0.21688232,0.24134459,0.24244542,0.17307995,0.17356199,0.12319216,0.13124992,0.063332796,0.07218765,0.06600182,0.095154166,0.004341451,0.052565277,0.10678014,0.14559035,0.12567905,0.12875426,0.17753993,0.1949537,0.16767424,0.19243872,0.21580891,0.2284279,0.17880489,0.13656346,0.10699127,0.09444634,0.040433265,0.014356963,-0.05809651,-0.020627214,-0.12350049,-0.12716998,-0.13015202,-0.085282214,-0.16212058,-0.16615383,-0.15192796,-0.067930475,-0.17834035,-0.09552047,0.04837741,0.017761016
ECG_0033,0,normal,-0.033179257,0.03235739,0.067544065,0.119478546,0.17307152,0.14734574,0.13041148,0.17370616,0.12505625,0.10359001,0.06371328,0.045854546,0.03798462,-0.0009194511,0.012742816,-0.062233195,-0.14656828,-0.10396164,-0.099767685,-0.10792127,-0.038642958,-0.08725871,-0.017789634,-0.012245401,0.025473768,0.043451343,0.10909666,0.12809645,0.19175467,0.20868134,0.20879029,0.27988085,0.26752365,0.23787166,0.24495262,0.22084212,0.17445046,0.1749264,0.1225948,0.07828408,0.021349024,0.021781947,0.012398479,-0.0609377,0.003056204,-0.074125096,-0.084166385,-0.11551951,-0.092632346,-0.1730258,-0.21969157,-0.14204577,-0.089934714,-0.07121544,-0.023875704,0.072155386,0.14379203,0.3088402,0.4750129,0.7497604,1.1376222,1.3635616,1.5064445,1.5150089,1.3640025,1.0988998,0.7760147,0.48600605,0.30101252,0.1315271,0.079749085,-0.010228923,-0.053925656,-0.11315609,-0.11361148,-0.109650455,-0.10094425,-0.11847139,-0.06778728,-0.07605356,-0.02098097,-0.021343317,-0.01768936,0.091673106,0.15412365,0.19829406,0.24041492,0.26025498,0.28408906,0.35564706,0.37483153,0.3595618,0.4150855,0.35185087,0.34893802,0.39604062,0.3470603,0.27929217,0.26427963,0.22426084,0.101304434,0.122332424,0.11720492,0.08190959,0.079602376,0.09204367,0.041179195,0.018376468,0.06528612,0.056518827,0.07664275,0.09046025,0.18573202,0.07031425,0.14317636,0.16878194,0.15502982,0.20952427,0.20479082,0.17028148,0.14840652,0.1318806,0.10546993,0.075373255,0.038263477,0.016241228,-0.003763861,-0.09644674,-0.12081487,-0.16666216,-0.107087895,-0.13750212,-0.13428207,-0.1890583,-0.081855014,-0.13596292,-0.08892377,-0.039806783,-0.06317064,-0.016355176
ECG_0034,0,normal,0.005375445,0.11933912,0.07455417,0.14228562,0.15405665,0.14672948,0.11692925,0.18188623,0.10106052,0.1826164,0.12251071,0.01330169,0.054662794,0.054032676,-0.0037649968,-0.0048009655,-0.07775903,-0.11182375,-0.087755255,-0.08881082,-0.09468023,-0.0320337,-0.06972356,-0.0022809547,0.028782008,0.021811273,0.071289234,0.15140666,0.24608994,0.23314694,0.18536007,0.15680937,0.27671003,0.24842714,0.2748258,0.19693527,0.21098456,0.19819671,0.12780125,0.093849525,0.070789926,0.04882046,-0.0050406614,-0.010878027,-0.086423114,-0.14054753,-0.063987024,-0.15751581,-0.16527157,-0.15138984,-0.14085402,-0.14026251,-0.10720429,-0.07695382,-0.026895303,-0.03819654,0.18875659,0.28045416,0.5206185,0.7412792,1.0750688,1.3403652,1.5692331,1.5160763,1.4062185,1.100656,0.80093056,0.52365214,0.34537798,0.092619285,0.0070643984,-0.07744037,-0.09451025,-0.11521047,-0.15841506,-0.14250492,-0.18287157,-0.1461943,-0.06414838,-0.0641856,-0.03914235,-0.03673111,-0.009394258,0.049447656,0.13106763,0.20707895,0.25482035,0.28963095,0.28616476,0.33983168,0.35239783,0.37035307,0.4429166,0.32547683,0.3594034,0.38330033,0.2770261,0.27072,0.23978706,0.21291837,0.13579413,0.16738522,0.13871893,0.107859194,0.046078086,0.060754526,0.023842063,0.040128212,0.120144606,0.069188386,0.045698863,0.10462352,0.077923015,0.10156506,0.12359268,0.15556332,0.20657316,0.19988143,0.19608295,0.1387464,0.14028731,0.14339933,0.089763924,0.06937345,0.05714421,-0.0017954322,-0.019578435,-0.011757076,-0.09445071,-0.07882649,-0.11629871,-0.18902908,-0.1825042,-0.17118123,-0.1610485,-0.120406084,-0.07553062,-0.02778357,-0.024315998,-0.013335832
ECG_0035,0,normal,-0.062466945,0.03573262,0.06629353,0.09958265,0.18107368,0.17290708,0.17015694,0.1212313,0.13061398,0.1317448,0.09324834,0.10782233,0.07558524,0.0017650081,0.03925022,-0.02318183,-0.10413043,-0.07418457,-0.0771757,-0.060574014,-0.09435299,-0.044014286,-0.03860308,-0.05112756,-0.015712094,0.10218955,0.14673966,0.1607366,0.23152514,0.24746713,0.25763798,0.22278468,0.30666128,0.2674026,0.22901267,0.2033087,0.2081817,0.12267974,0.16221535,0.07802497,0.081150286,0.016891558,-0.012543202,-0.06280521,-0.07740194,-0.044014283,-0.0817445,-0.12874243,-0.14897713,-0.1240897,-0.108970344,-0.15355656,-0.10900444,-0.1304197,0.0015531804,0.09447881,0.13473278,0.22112249,0.5214665,0.75549954,1.0692984,1.379332,1.532778,1.5190074,1.363988,1.1239437,0.8022252,0.49774155,0.29688573,0.15950264,0.0411912,-0.06142648,-0.03221325,-0.17302682,-0.123371586,-0.13908644,-0.11798476,-0.09880478,-0.06635805,-0.097665384,-0.027168913,-0.0007731998,-0.01465789,0.14063855,0.08920068,0.19361857,0.23944812,0.2789817,0.29345414,0.36391276,0.31522706,0.3744139,0.36488652,0.3580179,0.37930614,0.37927222,0.31070516,0.31345287,0.25715044,0.19283509,0.17593428,0.14054206,0.09783052,0.105462424,0.079228684,0.010439711,0.0012794894,0.062846646,0.031081978,0.07537876,0.10475261,0.061084878,0.07613078,0.18776833,0.1653735,0.15631539,0.15044588,0.16721627,0.14467593,0.1982165,0.1332242,0.16804533,0.09659466,0.046423938,0.031114403,-0.07005726,-0.02998328,-0.064642504,-0.064552665,-0.17079577,-0.09822383,-0.12039384,-0.11187878,-0.147755,-0.10498655,-0.16183472,-0.07257851,-0.08857321,-0.08310331,-0.03368966
ECG_0036,0,normal,0.00016622568,0.0088859545,0.07680263,0.03984766,0.05407354,0.17686081,0.17371912,0.11861471,0.14591384,0.16517535,0.12908657,0.09725509,0.097732596,0.012492868,0.004281073,-0.0267866,-0.060441162,-0.08433845,-0.08342585,-0.08872556,-0.11568153,-0.044798557,-0.073508896,-0.018222926,0.017884495,0.07925586,0.04728702,0.17777662,0.16634423,0.25236773,0.22278418,0.24865872,0.312132,0.2429934,0.27775332,0.22452815,0.21294074,0.17491028,0.16666071,0.08606614,0.040510587,0.013382882,-0.0016193299,-0.04672248,-0.05125681,-0.061553717,-0.15257144,-0.16139525,-0.19130547,-0.08850455,-0.13372937,-0.11426793,-0.14688753,-0.07579605,-0.016862443,0.024945352,0.16460148,0.35422772,0.47478792,0.75195956,1.0628662,1.4087206,1.556412,1.5295849,1.384573,1.0956724,0.84120995,0.5196216,0.29906034,0.16757856,0.040894456,-0.026070202,-0.06156793,-0.06700181,-0.06058584,-0.1029159,-0.0983307,-0.121650256,-0.12139493,-0.05667365,-0.039629158,-0.04932661,0.026846202,0.08113543,0.1170502,0.22548571,0.2421445,0.31190783,0.3161942,0.34153682,0.33394015,0.37674665,0.38219437,0.33732343,0.3502579,0.3372494,0.33340722,0.30387294,0.23821867,0.23368315,0.17821048,0.06343804,0.104189254,0.124977596,0.021735122,0.061539937,0.09838311,0.027287723,0.055605043,0.027197039,0.1301416,0.09671348,0.1198757,0.1781644,0.17467073,0.14262375,0.15904576,0.19737743,0.16166946,0.10819683,0.1549295,0.09083291,0.15710197,0.08302807,0.0167482,-0.012291225,-0.08304215,-0.092522785,-0.05880525,-0.04725304,-0.11128792,-0.1477731,-0.16239887,-0.17486823,-0.07361048,-0.12335985,-0.030501043,-0.023632739,-0.08578514,-0.019944018
ECG_0037,0,normal,-0.020071061,0.03121954,0.063711,0.18398196,0.08556963,0.14255829,0.16510035,0.15004645,0.14930925,0.10324587,0.11970513,0.10815036,0.074705996,0.05152027,0.045723956,0.0018578566,-0.050119463,-0.107797034,-0.10361206,-0.09634672,-0.07665832,-0.083202414,-0.07228933,-0.047321882,-0.022792423,0.06146423,0.06677017,0.121033564,0.17483687,0.17569132,0.24852169,0.2723307,0.23823562,0.23820272,0.25671074,0.20193695,0.17699616,0.20870647,0.16775079,0.12467859,0.09780138,-0.026778195,0.036004424,-0.028336054,-0.042241614,-0.08908082,-0.12182854,-0.14763607,-0.13720396,-0.15876818,-0.11683317,-0.1762557,-0.12292855,-0.014416254,-0.050922297,0.025367571,0.10585287,0.29494816,0.48111185,0.7770539,1.1146649,1.3395717,1.5487998,1.5583177,1.4151249,1.1243849,0.9117469,0.5626547,0.31660897,0.12303714,0.04362253,0.023768587,-0.0105991475,-0.0465126,-0.086424865,-0.1581503,-0.10781527,-0.1528967,-0.14478514,-0.06911848,-0.0290704,0.020453561,0.05160238,0.09956992,0.10282436,0.17788434,0.18253581,0.21061152,0.33051074,0.31650147,0.38821304,0.40963918,0.36322325,0.39604616,0.34660903,0.2915715,0.3247021,0.2759062,0.24245554,0.27887735,0.13789713,0.16101278,0.0888861,0.11985578,0.08114223,0.06953953,0.02247858,0.027138475,0.08335809,0.11944146,0.095733896,0.07229084,0.12864505,0.21035954,0.15789907,0.21274784,0.1562542,0.18126692,0.19898005,0.18363398,0.13353507,0.11095377,0.13826206,0.113470964,0.08926776,0.06278566,-0.02232164,-0.06887491,-0.04876522,-0.09281454,-0.16255347,-0.17602089,-0.1346822,-0.1514916,-0.13619636,-0.085521385,-0.07119882,-0.025542127,-0.09150733,0.007636492
ECG_0038,0,normal,0.020840947,-0.0121826455,0.045873556,0.06888023,0.11853741,0.1845248,0.2072828,0.125665,0.16180055,0.15135407,0.12813932,0.10477778,0.07399025,0.085041344,0.036419716,-0.058055755,-0.02838667,-0.04587308,-0.076162875,-0.055815056,-0.07858648,-0.062838405,-0.04058012,-0.072223246,0.024330957,0.048465233,0.0752667,0.19406988,0.20178016,0.21487391,0.22018503,0.25900912,0.2844615,0.22650458,0.24044298,0.2493988,0.14239815,0.17108442,0.12834641,0.1026172,0.054983187,0.036668904,0.053098176,-0.04981559,-0.06381372,-0.040853277,-0.13979675,-0.08493654,-0.14805861,-0.09595885,-0.12036342,-0.11944875,-0.10865019,-0.09448219,-0.029866137,0.059448928,0.13193695,0.2753741,0.4956763,0.8123965,1.1259537,1.3405201,1.5050837,1.5450315,1.4293021,1.1545483,0.7769536,0.5230964,0.27894452,0.14128949,0.09466661,-0.06169924,-0.11045115,-0.115719095,-0.10136131,-0.10185784,-0.10930667,-0.080384076,-0.15305357,-0.04064314,-0.054129243,0.015297078,-0.0030144718,0.08377104,0.13945206,0.21570617,0.18019168,0.27163517,0.2757344,0.3542601,0.38535458,0.41500387,0.3657519,0.40615362,0.40727076,0.29765046,0.3393732,0.31878778,0.24789642,0.18329386,0.21196152,0.11354138,0.11337978,0.091404215,0.09365544,0.039360255,0.03028776,0.053073578,0.08573228,0.13494103,0.036100224,0.10867372,0.085880846,0.16809972,0.12667003,0.14865316,0.16078596,0.18024352,0.19008902,0.18622518,0.15635371,0.09534256,0.1304471,0.07613568,0.07875549,-0.012564415,-0.07442846,-0.06055971,-0.050416365,-0.10937836,-0.13906991,-0.17112224,-0.0967071,-0.17706144,-0.15716529,-0.10059636,-0.14965056,-0.027200604,-0.014835456,0.027011488
ECG_0039,0,normal,0.016743802,0.028781226,0.033625964,0.08989252,0.08862937,0.15027384,0.17080851,0.19439788,0.15715685,0.1623274,0.10759621,0.07846008,0.07908813,0.022820055,0.011421293,-0.058086906,-0.07870713,-0.053582,-0.059011195,-0.11932747,-0.06411027,-0.0848345,-0.043722183,0.03083241,0.050967526,0.09238891,0.16812386,0.12993295,0.15707768,0.19410518,0.2294941,0.17948751,0.24849558,0.23497643,0.2641006,0.23392938,0.18245728,0.19051033,0.16292305,0.08357572,0.055241317,-0.03422073,-0.03733044,-0.062372003,-0.070340075,-0.12905715,-0.13869984,-0.17613672,-0.14308488,-0.1366443,-0.13079849,-0.12829116,-0.15291347,-0.09435956,-0.044359084,0.020429224,0.13457973,0.32763904,0.5275627,0.7529967,1.109551,1.3797437,1.5009594,1.5591167,1.3786649,1.07787,0.82816523,0.5375275,0.30003232,0.14819127,0.02496174,-0.00071730715,-0.0631887,-0.08586901,-0.09926637,-0.15511806,-0.14925861,-0.18195297,-0.08321873,-0.11265954,-0.04078929,0.0044818954,0.054758877,0.047501832,0.13040909,0.23114206,0.27917877,0.30033228,0.31841624,0.308942,0.38359675,0.37164813,0.3986186,0.35935152,0.36125574,0.3518723,0.3283912,0.3048441,0.23828237,0.17931853,0.23241639,0.22420427,0.13215294,0.05288817,0.048993442,0.07343273,0.09105874,0.013719393,0.051810585,0.072195485,0.107262015,0.08890543,0.071562454,0.1561713,0.18857026,0.16641487,0.19062129,0.16829476,0.15501991,0.2025069,0.1681516,0.14995036,0.15367699,0.046079174,0.027342662,0.013405749,-0.04328962,-0.036044832,-0.094916925,-0.1439826,-0.13110666,-0.13990165,-0.12139963,-0.13437913,-0.12156906,-0.10808864,-0.09961662,-0.086924896,-0.0248961,-0.009959188
ECG_0040,0,normal,0.05069497,0.0738804,0.0845056,0.1054488,0.1152477,0.09785548,0.14011995,0.15313563,0.15288752,0.14867623,0.14415045,0.07204378,0.04438571,0.07793994,0.026475167,-0.03797427,-0.055474635,-0.075725704,-0.08466467,-0.0755773,-0.008178918,-0.063159734,-0.024339393,-0.062270224,0.012195909,0.105377205,0.1229296,0.019375894,0.20687462,0.27331376,0.17725189,0.29570565,0.17155977,0.27945352,0.24032837,0.15285766,0.21386231,0.20733671,0.15214176,0.12417692,0.05768176,-0.023301525,0.01614528,0.0123947,-0.038677633,-0.16033195,-0.16874312,-0.16475582,-0.19600756,-0.14809005,-0.13106698,-0.1715696,-0.08336742,-0.057727832,-0.048584655,0.027352422,0.07383627,0.27490494,0.50342137,0.7876846,1.1005652,1.3678619,1.5172111,1.5422366,1.4135371,1.1173037,0.82403696,0.52543354,0.28745988,0.16500126,0.029877527,-0.007436815,-0.061037526,-0.09998051,-0.119824916,-0.13572411,-0.17180416,-0.10416778,-0.093214594,-0.05080313,-0.06071009,0.050213758,0.025296213,0.05736905,0.10255339,0.12901597,0.27372816,0.31184462,0.3263138,0.31221253,0.4163761,0.3658372,0.373732,0.4214546,0.38621104,0.41298094,0.3284645,0.2781215,0.23730406,0.16420718,0.17531498,0.18386444,0.13669534,0.09321717,0.042341262,0.06496539,0.08120968,0.06302769,0.060542624,0.042408798,0.10734011,0.0052563176,0.12996227,0.21464504,0.109575175,0.16165152,0.17822675,0.16865201,0.21148431,0.18588766,0.16109574,0.15915747,0.10911605,0.17312038,0.048443858,0.014526211,-0.07767426,-0.07584244,-0.054873616,-0.15427032,-0.19780654,-0.14404236,-0.108317755,-0.14490192,-0.14548719,-0.17345203,-0.080402315,-0.04560007,-0.08701322,0.03407053
ECG_0041,0,normal,0.022971157,0.06758441,0.08302618,0.11370527,0.13350809,0.16174336,0.09204239,0.10506184,0.12392359,0.13069554,0.12815467,0.102548845,0.09839115,0.0688691,-0.022825833,-0.019093856,-0.07769325,-0.07829169,-0.075958155,-0.19201915,-0.011891378,-0.051860172,-0.062088437,0.04614517,0.016319973,0.07248833,0.09624667,0.20060909,0.18350439,0.22025336,0.2732426,0.2676782,0.253088,0.28462526,0.31674233,0.23287912,0.20398098,0.17793033,0.18053804,0.08865616,0.061682515,-0.013583121,-0.040126678,-0.055631917,-0.074243166,-0.04762317,-0.10721651,-0.16673915,-0.17005771,-0.10817328,-0.10907114,-0.1278175,-0.11995707,-0.042012967,-0.061939698,0.044288993,0.20051007,0.29103348,0.4799315,0.79493326,1.0750986,1.3187112,1.5461725,1.5671858,1.374149,1.1088516,0.7856622,0.5265206,0.2899916,0.11898389,0.10329937,-0.005026438,-0.044713333,-0.064360484,-0.08684955,-0.13287379,-0.11425355,-0.12372555,-0.08700709,-0.066042505,-0.05624619,-0.04652671,0.0410754,0.077494256,0.07565276,0.19626349,0.25670958,0.34656328,0.29655552,0.32293385,0.32875547,0.38264802,0.3878723,0.35399795,0.36119583,0.28758788,0.34879413,0.26691204,0.25461853,0.17681627,0.16620223,0.14113891,0.11839159,0.10699991,0.11536155,0.08014053,0.0796902,0.09348924,0.072631806,0.06521631,0.111598015,0.13140374,0.13793387,0.09389655,0.12958257,0.16064699,0.20185272,0.1818891,0.21449915,0.21117122,0.19250184,0.17140551,0.07750371,0.092203505,0.025677579,-0.04080424,-0.034984358,-0.01979682,-0.07547269,-0.05367234,-0.12776291,-0.071577735,-0.14411445,-0.14549895,-0.17378515,-0.08438051,-0.10903369,-0.08484975,0.004875667,0.034781236
ECG_0042,0,normal,0.033961833,0.022749197,0.06399115,0.092299156,0.14136201,0.18229613,0.15764952,0.20934035,0.17291966,0.12754616,0.14137189,0.1439866,0.12482665,0.07002098,0.004115953,-0.032751936,-0.034976214,-0.022425048,-0.07259882,-0.07612183,-0.08268677,-0.078689165,-0.049081374,-0.0076131434,0.07828591,0.061321337,0.1124385,0.125088,0.20815286,0.2567692,0.28586406,0.25622496,0.27194905,0.24670704,0.2564284,0.23277576,0.20222612,0.17694412,0.15478283,0.09780752,0.06275714,0.08376103,0.07670576,-0.076228924,-0.11034919,-0.12941025,-0.12639494,-0.11250338,-0.1304807,-0.1442548,-0.12700139,-0.14942458,-0.114004955,-0.07636379,-0.079666376,-0.0023112234,0.09868332,0.30779603,0.51056045,0.80095404,1.0340092,1.3160276,1.5450379,1.4502907,1.420215,1.0654691,0.8398095,0.50436115,0.33832973,0.24555969,-0.021661025,0.0018400921,-0.11613007,-0.078059405,-0.116183795,-0.11658702,-0.14978072,-0.092238404,-0.14361173,-0.039044116,-0.05704389,-0.048728473,0.084536396,0.08160206,0.18959302,0.21767433,0.20380495,0.2681629,0.31192258,0.3848843,0.3751636,0.38167754,0.3758064,0.37682012,0.40558147,0.347059,0.30915293,0.27309722,0.23904526,0.17755419,0.16116159,0.19447926,0.11253234,0.11374029,-0.0021733996,0.07520854,0.04598469,0.03566291,0.060969368,0.05144277,0.017608412,0.1268809,0.12576742,0.1281171,0.12584081,0.12479688,0.18518087,0.23093273,0.18648809,0.13023128,0.16328023,0.13363901,0.13453484,0.095926434,-0.045671225,0.025025014,-0.056464605,-0.10219079,-0.09494915,-0.10187749,-0.18230185,-0.12387453,-0.12653993,-0.14476407,-0.16143216,-0.14707872,-0.06319197,-0.110775,-0.0016271361,-0.00492142
ECG_0043,0,normal,-0.0028747434,-0.017627701,0.061118927,0.11250235,0.077794164,0.15064827,0.14927548,0.13078095,0.17164402,0.06852243,0.12691097,0.14139146,0.10807627,0.046108443,-0.0057047037,-0.045325216,-0.061346076,-0.056330066,-0.10982921,-0.06703507,-0.020233884,-0.07070893,-0.08454918,-0.052018266,0.050039876,0.06672037,0.13716507,0.1350403,0.21157263,0.21101986,0.215154,0.23809406,0.2188068,0.31099433,0.23769638,0.24269223,0.1843721,0.14125368,0.13420874,0.13966787,0.05441009,0.006424208,5.3286112e-05,-0.02512724,-0.023279611,-0.09008315,-0.10397651,-0.11779854,-0.18280876,-0.1783157,-0.17538634,-0.16862637,-0.08281748,-0.06705945,-0.029755002,-0.04525341,0.19399461,0.25804463,0.5647542,0.739145,1.0648268,1.2944492,1.5360051,1.5006131,1.3512862,1.0789932,0.83782977,0.55236256,0.36122364,0.12874366,0.053098887,-0.05770128,-0.071936354,-0.10642783,-0.09604713,-0.089969836,-0.09269813,-0.140939,-0.070206955,-0.07761579,-0.05450429,-0.027903097,0.019890217,0.13589175,0.14158626,0.186272,0.21988192,0.34409195,0.34744176,0.31746334,0.35382965,0.3699614,0.38617894,0.35730004,0.3796082,0.3905105,0.281594,0.25618804,0.24116346,0.2065132,0.24362682,0.17957792,0.14705999,0.084676966,0.06359989,0.0146080395,0.074277475,0.06483775,0.09412049,0.059992634,0.07707129,0.10431483,0.14523382,0.09342891,0.17690806,0.16827774,0.14670497,0.119991325,0.17629889,0.21514551,0.20676728,0.14590058,0.1674737,0.07643621,0.07250255,-0.0048691784,-0.04179819,-0.079864204,-0.15111081,-0.07559385,-0.15232879,-0.16905499,-0.18483925,-0.15230414,-0.082498685,-0.054884024,-0.14379594,-0.07607176,-0.06459198,0.029684687
ECG_0044,0,normal,0.008598098,0.014517851,0.06769762,0.07977223,0.16631384,0.15209797,0.16669983,0.07008609,0.14400017,0.19708647,0.15629442,0.03739571,0.0554752,-0.001631342,0.054678768,-0.01892279,-0.07529217,-0.07161954,-0.16383286,-0.12230662,-0.08313539,-0.043482173,-0.10245676,-0.023110582,0.05703348,0.024969151,0.117735624,0.15302856,0.23808534,0.20886475,0.23198111,0.2757728,0.21492797,0.24468705,0.22691607,0.21918945,0.22593038,0.18943636,0.11876469,0.11073306,0.11474529,0.0075991964,-0.0002556378,-0.045892738,-0.07445521,-0.14961539,-0.0809734,-0.16260736,-0.11743614,-0.16805704,-0.1616346,-0.0922683,-0.076864734,-0.069500975,-0.009305366,0.0238715,0.13207927,0.26502407,0.5303217,0.7618198,1.1337535,1.3510596,1.5257566,1.5564126,1.3841921,1.1112313,0.8136084,0.5578332,0.28697705,0.14552777,0.046842907,0.0069163335,-0.06488055,-0.036613498,-0.11467679,-0.127611,-0.12756109,-0.15515387,-0.1312628,-0.09221324,-0.010691488,-0.0076415334,0.022148965,0.120418385,0.17889924,0.21869512,0.20215662,0.25585514,0.36270353,0.3463294,0.35400927,0.3979392,0.41202173,0.36119336,0.3730269,0.37474465,0.28619424,0.2904028,0.22222653,0.19010966,0.16677985,0.16384023,0.10906964,0.07315539,0.07373593,0.02375032,0.063689366,0.08404771,0.05316445,0.060238056,0.09252787,0.03835938,0.13458142,0.23059195,0.15114608,0.16531886,0.2007723,0.23188947,0.20964213,0.107045926,0.1734287,0.2123972,0.12728676,0.043086383,0.05235834,-0.02975287,0.010623888,-0.08821541,-0.08706764,-0.13994002,-0.14947326,-0.1004273,-0.14633638,-0.16294943,-0.16976029,-0.17384844,-0.13150835,-0.062079545,-0.004154237,-0.01677599
ECG_0045,0,normal,0.0471166,0.012089918,0.058380075,0.061707485,0.14760932,0.19861451,0.09375061,0.13970876,0.18394722,0.09118177,0.13351107,0.12945256,0.06722484,0.050922133,0.056172792,0.032201655,-0.05411732,-0.08861562,-0.1132113,-0.060448863,-0.12538196,-0.07642966,-0.041136645,-0.026765998,0.035137516,0.14544815,0.10721218,0.13798717,0.21711388,0.22295634,0.2803092,0.25506464,0.24726573,0.1978018,0.19199578,0.16828585,0.21185835,0.13194403,0.17889248,0.10753949,0.06270643,0.007224515,0.014057121,-0.06423285,-0.1021264,-0.06504517,-0.11265765,-0.14642468,-0.1289753,-0.14914778,-0.13137905,-0.15316744,-0.044569314,-0.09314955,0.014540607,0.026862018,0.15654321,0.30689952,0.53760535,0.7574035,1.121468,1.4159279,1.5173806,1.5346919,1.3677728,1.1097755,0.8658518,0.5008916,0.27859905,0.1976419,0.06527076,0.044589885,-0.07539835,-0.08707404,-0.12980095,-0.116181456,-0.17565303,-0.095106,-0.09045678,-0.07801987,-0.056477312,-0.03349037,0.05851968,0.048489638,0.14772081,0.24326718,0.27231497,0.22555876,0.2921893,0.35173872,0.35992965,0.33440658,0.39336225,0.37803632,0.42387348,0.339351,0.35604295,0.2520198,0.22481793,0.24126692,0.21618477,0.12080486,0.11945264,0.05116056,0.0667527,0.083266884,0.037776515,0.042635072,0.021646708,0.046866775,0.13406798,0.10140121,0.08840766,0.12809221,0.106903546,0.13846782,0.21927428,0.17825502,0.237115,0.1688537,0.15544738,0.15446612,0.0284359,0.083872624,0.042433854,0.053248916,0.0025801589,-0.09354968,-0.05203079,-0.12207606,-0.16021341,-0.13909872,-0.15552317,-0.100019395,-0.12518479,-0.11152762,-0.06695052,-0.032652177,-0.010053097,0.042618457
ECG_0046,0,normal,0.018260764,0.038644474,0.10269559,0.0913679,0.11888386,0.18733649,0.19526285,0.14984834,0.13239728,0.17848535,0.1405231,0.10227583,0.055221796,0.044365138,0.0026944655,-0.046181284,-0.048387032,-0.06468156,-0.096873745,-0.062643014,-0.045563728,-0.039755505,-0.05250479,0.010998722,0.02908175,0.031440374,0.13104202,0.15543328,0.26446038,0.25948697,0.25846362,0.25759915,0.25963008,0.22120287,0.18841821,0.19718003,0.19904667,0.10964534,0.124895506,0.0992037,0.06356925,0.012688459,-0.014856055,0.011618897,-0.0527007,-0.11750469,-0.12534672,-0.1402262,-0.17125696,-0.17248964,-0.11255373,-0.14125553,-0.13952217,-0.07705516,-0.02859959,-0.026653044,0.13110791,0.3109122,0.5167367,0.84951603,1.1267321,1.4040027,1.609144,1.5563954,1.3883682,1.1493808,0.79773206,0.53424925,0.2874308,0.1612544,0.026977032,-0.039629076,-0.049480986,-0.094993815,-0.16780627,-0.1641472,-0.15684812,-0.14214379,-0.0877283,-0.06972507,-0.0128080025,0.015936304,0.06884538,0.101874225,0.1386543,0.21401419,0.2553317,0.28199545,0.3464236,0.26872155,0.3533242,0.36721504,0.41638327,0.4254787,0.32293832,0.38928288,0.2858595,0.255796,0.24862964,0.21007088,0.13692033,0.16902298,0.13911238,0.124229185,0.059185635,0.05697172,0.049912453,0.100745976,-0.029486774,0.037609197,0.08149088,0.06664635,0.11072728,0.1337531,0.13509579,0.17082667,0.19730857,0.1754415,0.16679725,0.16674118,0.15630364,0.08302971,0.12246014,0.0641944,0.0817495,0.026399352,0.008741769,-0.089869045,-0.100436546,-0.15148038,-0.15423556,-0.10744866,-0.10481538,-0.18061735,-0.14915179,-0.119983256,-0.07640177,-0.11823263,-0.081651255,0.014723339
ECG_0047,0,normal,-0.058470864,0.02021101,0.07038318,0.10656477,0.11363492,0.12471648,0.17194225,0.1586498,0.12659332,0.13572182,0.12800562,0.14435552,0.08846769,0.070850946,-0.014972502,-0.041976627,-0.0593197,-0.07695146,-0.11585265,-0.051779777,-0.05772815,-0.07802277,-0.024966018,-0.004988948,0.04833775,0.028183538,0.10649031,0.14930817,0.2053632,0.19691572,0.1621312,0.21767303,0.25288698,0.25323007,0.29110026,0.2408392,0.20292409,0.17183977,0.17435066,0.088928774,0.06582353,-0.00013757631,0.03795654,-0.02832295,-0.093790755,-0.10412932,-0.10800677,-0.14689836,-0.16425242,-0.16904396,-0.13270059,-0.13940363,-0.120294005,-0.115842804,-0.029810665,0.02709138,0.12268085,0.29083592,0.52563983,0.80366915,1.1057807,1.3533145,1.5081314,1.5023333,1.3656815,1.1207582,0.79092056,0.5339004,0.27789894,0.099485114,0.07111649,-0.03325366,-0.0869962,-0.12367789,-0.097289555,-0.07923326,-0.13452235,-0.122121535,-0.068012044,-0.1306066,0.014239676,0.06667526,-0.044501834,0.08069724,0.11079552,0.17309049,0.21519777,0.29506537,0.30491436,0.31176797,0.35687253,0.3918323,0.34629112,0.3289498,0.426226,0.32767507,0.31688225,0.27809858,0.27210084,0.27280077,0.20107086,0.10397569,0.07720661,0.08063899,0.0641423,0.0065006632,0.07540549,0.017516496,0.100339614,0.120936505,0.07387705,0.11238264,0.08151848,0.15624566,0.1398806,0.13627554,0.16978404,0.16855705,0.17063831,0.20020452,0.1329675,0.18728998,0.06886174,0.12618735,0.013408132,0.008637351,-0.041066106,-0.06985079,-0.065254234,-0.06921182,-0.097364075,-0.15715751,-0.14391243,-0.1696357,-0.16514996,-0.15208642,-0.107097134,-0.057950154,-0.0909157,-0.0013560563
ECG_0048,0,normal,0.045481045,0.06727226,0.047964904,0.0521886,0.13168137,0.06616634,0.17990974,0.143686,0.20094284,0.08278117,0.14405493,0.08979313,0.05494646,-0.006681062,0.021218156,-0.005967018,0.0012955333,-0.042402774,-0.10342876,-0.119873665,-0.12528345,-0.024655703,-0.067562565,0.032730974,0.042495072,0.078409836,0.10165409,0.17086951,0.18618982,0.20469244,0.25800925,0.24580486,0.23076838,0.26930836,0.23866826,0.2380241,0.18686238,0.13653788,0.19327737,0.15303043,0.09654559,0.020905847,-0.01362018,0.001371906,-0.08317996,-0.11967235,-0.06712925,-0.14080712,-0.095165536,-0.19136749,-0.12732391,-0.06652952,-0.10578875,-0.083681084,-0.06717244,0.06499837,0.10922646,0.28202856,0.46616474,0.829329,1.1238455,1.3595871,1.4905169,1.579728,1.3724983,1.0870125,0.7616456,0.5116397,0.2632235,0.13063024,0.068866566,-0.030283228,-0.051214386,-0.112562515,-0.10802556,-0.06285346,-0.13288471,-0.10412175,-0.14712681,-0.030690052,-0.059082583,0.024868257,0.03299288,0.10196972,0.15249431,0.16746043,0.2605065,0.24794304,0.33162948,0.32738903,0.37252483,0.36252898,0.38330203,0.346096,0.37387043,0.3482735,0.30479825,0.2883816,0.25967833,0.20112635,0.17981009,0.11936008,0.1891023,0.1243815,0.080382116,0.09332259,-0.008552305,-0.026624281,0.04356184,0.024960602,0.07422649,0.10538316,0.14608933,0.10338746,0.1668153,0.1693243,0.18888937,0.16693634,0.22188714,0.16860887,0.2097522,0.11152764,0.13089834,0.07593439,0.034071177,0.027637208,-0.03533543,-0.13939789,-0.181181,-0.07603396,-0.096172065,-0.088391595,-0.14996594,-0.1849524,-0.14799097,-0.117354654,-0.124181084,-0.015981082,0.033623837,0.014382976
ECG_0049,0,normal,-0.00032562087,-0.005234079,0.11191344,0.09638399,0.109211534,0.15012442,0.12903377,0.15449987,0.10272982,0.16720276,0.11337822,0.12757242,0.05884389,0.030328251,-0.033023804,-0.0034584305,-0.0785335,-0.087236956,-0.08558048,-0.08612106,-0.1354116,-0.07577661,-0.02036043,-0.023026064,0.020000957,0.07338493,0.107081324,0.12013387,0.18556355,0.24559103,0.20559384,0.23888956,0.21326949,0.279555,0.23781708,0.19785081,0.20324615,0.1367035,0.11022029,0.06282809,0.038028665,0.07326029,-0.02660419,-0.026111163,-0.0976541,-0.077909656,-0.15407875,-0.13819996,-0.14663276,-0.07958158,-0.123956695,-0.14644912,-0.08612981,-0.011615717,-0.08102897,0.0072536212,0.12522337,0.27236015,0.49321708,0.7434952,1.1313176,1.3178564,1.519135,1.5650257,1.3825706,1.0907868,0.77404886,0.52411866,0.28415173,0.1554718,0.0044907704,0.00536985,-0.058418702,-0.08516738,-0.06674833,-0.13361435,-0.14420463,-0.13208754,-0.105936795,-0.079022184,-0.069687314,-0.06734031,0.01986042,0.09441711,0.13645168,0.21702027,0.2864139,0.29349262,0.34976706,0.36209843,0.41333508,0.43191436,0.41033772,0.39952824,0.36028674,0.34570774,0.31086773,0.30866998,0.23404777,0.21388388,0.11301775,0.20121934,0.112116076,0.10627535,0.1159229,0.067168005,0.09415558,0.012853977,0.12746187,0.09893083,0.08760074,0.14196584,0.08341785,0.12887692,0.19815388,0.1128808,0.19527782,0.19849478,0.23946987,0.12422547,0.20481567,0.11845517,0.09520324,0.04106431,0.011267889,0.020773418,-0.05973018,-0.0373304,-0.10918393,-0.15059763,-0.1489141,-0.1349106,-0.1577607,-0.14514706,-0.114517234,-0.08522475,-0.103272796,-0.09676498,-0.031278417,0.014154042
ECG_0050,0,normal,-0.04382147,0.0068966816,0.04394482,0.08786012,0.095055446,0.1569004,0.09845112,0.10270206,0.13598716,0.12932055,0.07287123,0.074605934,0.052846663,0.022615304,0.007902164,-0.046098508,-0.007923212,-0.057998143,-0.109825306,-0.086922444,-0.08050824,-0.03241079,-0.06222881,0.011344238,0.027998542,0.11325975,0.14958689,0.15695871,0.17878546,0.23096702,0.23171562,0.30053324,0.25707254,0.23914427,0.22679938,0.18696573,0.21717495,0.14821118,0.1741696,0.06784404,0.07384928,0.06704688,-0.06917805,0.020450048,-0.08532361,-0.09646281,-0.10615281,-0.11759292,-0.14000177,-0.11949421,-0.12729733,-0.07583556,-0.09101145,-0.016821885,-0.005107518,-0.02164442,0.21066338,0.26764247,0.54806614,0.783426,1.1210316,1.3398802,1.5439137,1.526055,1.4308462,1.1333287,0.8425874,0.46609634,0.30429545,0.16163142,0.05324275,0.009813494,-0.07286231,-0.08939886,-0.074543834,-0.18884116,-0.10474961,-0.12567118,-0.12753054,-0.06619691,-0.007942844,0.024526564,0.0326349,0.109894566,0.15840597,0.1784125,0.20695691,0.25165558,0.33342704,0.33783078,0.33065262,0.3258429,0.4067577,0.36193347,0.37635535,0.38413906,0.2817351,0.28867832,0.2505374,0.23100935,0.22084765,0.10964309,0.13582425,0.12355365,0.06659798,0.05403579,0.06337875,0.060450625,0.073011145,0.083155945,0.051865492,0.12892146,0.1534804,0.14311786,0.11000172,0.16545025,0.18429627,0.14819148,0.16958895,0.12943305,0.1747455,0.14021796,0.059240032,0.088268384,0.042208184,0.024160177,-0.038106196,-0.08358331,-0.11242028,-0.13035172,-0.13251506,-0.14057307,-0.1551617,-0.15887295,-0.14594555,-0.042465646,-0.11709169,-0.08217748,0.065254375,0.012664954
ECG_0051,0,normal,-0.04139913,0.058895547,0.038219262,0.121366635,0.111557595,0.122495316,0.19488007,0.16708566,0.1751935,0.14763772,0.10317721,0.11114903,0.10115444,0.038456384,0.057394996,-0.00073652354,-0.045898825,-0.06509969,-0.081494786,-0.12729494,-0.08693086,-0.06221684,-0.05669989,-0.0015456124,0.027382134,0.09172351,0.13075352,0.15606393,0.14563754,0.2694905,0.2328724,0.24769743,0.2444428,0.2366612,0.28690958,0.26493815,0.21380998,0.16958651,0.1597987,0.108846,0.064325355,0.042683344,-0.017845374,-0.03252999,-0.06643843,-0.08260759,-0.1418704,-0.1180727,-0.17540765,-0.16659275,-0.1587372,-0.16082355,-0.07621141,-0.10483252,-0.053107373,0.07019031,0.11521282,0.2792285,0.4728389,0.80761075,1.114601,1.3827031,1.5412673,1.5358584,1.3677449,1.0957196,0.8532063,0.55396277,0.2860635,0.15050982,0.03753085,-0.052867543,-0.056555644,-0.10332725,-0.13855673,-0.16485447,-0.16934423,-0.12679742,-0.102713846,-0.10255226,-0.0252442,-0.008614148,0.05399485,0.07813501,0.1087504,0.18445717,0.18986909,0.28689575,0.28017697,0.36664218,0.35188442,0.40826476,0.34812406,0.35800374,0.37787175,0.38206276,0.3710011,0.29127342,0.31079057,0.21092713,0.21663588,0.12126122,0.13133633,0.022357143,0.038541567,0.07215951,0.011452104,0.0629146,0.08273432,0.05127792,0.05225607,0.084987864,0.08950252,0.13449897,0.1578891,0.1597123,0.22869487,0.16094738,0.22213608,0.14047696,0.15871006,0.17073245,0.14255424,0.0651167,0.06055554,0.021303121,-0.042558398,-0.041060433,-0.033420183,-0.100055605,-0.11608913,-0.12484717,-0.19326939,-0.13236661,-0.16590624,-0.13539399,-0.029111685,-0.07303617,-0.055766474,0.034612034
ECG_0052,0,normal,-0.028430019,0.020192357,0.10299199,0.09537781,0.07103855,0.15200888,0.13471115,0.19628917,0.12781821,0.16612692,0.16978149,0.0672801,0.059081584,0.046073,-0.022374652,-0.01814229,-0.05900591,-0.07999631,-0.08414374,-0.08761984,-0.07931228,-0.08681723,-0.06087249,-0.01523355,0.02540018,0.05534727,0.12057833,0.09660648,0.16473995,0.20737101,0.21144567,0.29899997,0.25528428,0.25661665,0.22609091,0.22288343,0.16402057,0.167717,0.11311491,0.09830998,-0.0067654536,-0.001299929,0.03930715,-0.015185985,-0.032993875,-0.05906403,-0.10310666,-0.15296285,-0.17933582,-0.115013406,-0.14093241,-0.053841315,-0.117634214,-0.016574075,-0.036843635,0.072609544,0.18323106,0.2541843,0.48864985,0.7516328,1.0523006,1.3805467,1.5192425,1.5352217,1.4001633,1.064447,0.8531121,0.52054584,0.32283467,0.16793625,0.087658204,-0.022166943,-0.1255943,-0.08914864,-0.10395943,-0.15150832,-0.11800541,-0.12648518,-0.14044361,-0.05614869,-0.061678138,-0.018839128,0.022810925,0.120686695,0.13113645,0.18340664,0.21453024,0.2845986,0.348771,0.35853103,0.38264412,0.39457566,0.34039548,0.35205325,0.3602941,0.32517195,0.28906673,0.23386717,0.21526234,0.2119213,0.18159005,0.12573503,0.12109807,0.07959293,0.10490651,0.053310428,0.0717152,0.056202523,0.013478439,0.06359778,0.044255935,0.09596983,0.09612297,0.14899427,0.11455575,0.16933367,0.19563656,0.20975736,0.15746807,0.17224666,0.16205114,0.18165308,0.064173624,0.050391365,0.12803732,0.0004748297,-0.08309004,-0.07701544,-0.17236115,-0.106979,-0.10878628,-0.17236169,-0.1635618,-0.11846373,-0.18790992,-0.15734452,-0.1008134,-0.08800837,-0.042377256,-0.037877955
ECG_0053,0,normal,0.006429696,0.029137937,0.08199614,0.10010677,0.12408717,0.09229997,0.16138287,0.14016762,0.14100587,0.16603807,0.09492748,0.13334392,0.10821223,0.056997776,-0.026072904,-0.09183994,-0.019893253,-0.06930273,-0.107967824,-0.054550916,-0.11007547,-0.08157709,-0.028470626,-0.045084007,0.02345848,0.101186864,0.11719346,0.18847212,0.220662,0.21600099,0.16702688,0.21695085,0.27761844,0.204806,0.23078705,0.23351122,0.2445653,0.15556093,0.121920526,0.105058715,0.08055943,0.027912762,0.02686741,-0.06407223,-0.06896023,-0.08733929,-0.13530327,-0.1141855,-0.14374954,-0.12575036,-0.13704632,-0.11736986,-0.12565303,-0.0946841,0.004592011,0.051593397,0.10164134,0.2902987,0.4319865,0.765404,1.1180297,1.3567803,1.5286788,1.4431593,1.3717085,1.1303169,0.82846785,0.5598893,0.3005549,0.1443452,0.006570782,-0.025156869,-0.099732436,-0.14629857,-0.14253601,-0.075219944,-0.13054696,-0.10905831,-0.11556588,-0.13000977,-0.01668299,-0.071813695,0.020044511,0.081983894,0.13927862,0.15923956,0.17261048,0.2466798,0.2858287,0.31590238,0.39113986,0.33998066,0.39083216,0.38308576,0.39525735,0.34295392,0.34473675,0.28486583,0.26869,0.17452884,0.10452451,0.16085304,0.13166581,0.106873006,0.056441322,0.10285087,0.037028935,0.06273248,0.07337966,0.11787973,0.07181377,0.07961767,0.07353253,0.1841064,0.1674687,0.18248445,0.2719652,0.19228084,0.14132345,0.16583702,0.12728326,0.12336324,0.09653584,0.06011371,0.002104975,0.056442797,-0.017394781,-0.06630309,-0.06656581,-0.100074604,-0.124809094,-0.12446188,-0.14542206,-0.12606671,-0.11281008,-0.11281583,-0.10058177,-0.01952639,-0.047898296,0.0117739625
ECG_0054,0,normal,0.012417544,0.015328195,0.041285757,0.083479226,0.10311996,0.09194527,0.12706026,0.15808031,0.18398213,0.15122187,0.038524516,0.11204751,0.04813342,0.048006643,0.0029216616,-0.032031767,-0.055325374,-0.07331701,-0.04527975,-0.09034759,-0.051662616,-0.04065526,-0.024205972,-0.065274484,0.06024189,0.05477571,0.13233195,0.12187335,0.15110171,0.2750605,0.20841964,0.28450722,0.25827104,0.23870994,0.23924297,0.18432397,0.20006555,0.1403293,0.12936184,0.13439107,0.07765777,-0.011924948,0.020934002,-0.04031091,-0.08883061,-0.07829538,-0.1283125,-0.17434664,-0.092784,-0.14993437,-0.14531101,-0.14081515,-0.071282305,-0.09150731,-0.07848928,0.012167753,0.17213354,0.30983678,0.49554932,0.8238199,1.1116371,1.3525369,1.5201641,1.5435302,1.3585196,1.1203038,0.82376456,0.48040968,0.30118302,0.14022318,0.07737634,-0.07435613,-0.073330365,-0.10531511,-0.0811785,-0.121786885,-0.068547286,-0.09578823,-0.112467684,-0.06910347,-0.055388447,0.019134132,-0.0032776406,0.058911458,0.14603463,0.21780634,0.16169026,0.31194672,0.3040874,0.28257895,0.27198625,0.3305072,0.3812116,0.37635988,0.38543972,0.33046326,0.28776163,0.27763984,0.2566665,0.22654025,0.15999791,0.17657004,0.10008841,0.066516414,0.05591755,0.090404406,0.046841376,0.029270707,0.08332381,0.13059998,0.08761514,0.13622874,0.14955923,0.119366184,0.1556254,0.13041627,0.17231582,0.16374378,0.16830651,0.14921728,0.14791383,0.15120627,0.10502877,0.021793246,0.021519834,-0.036914233,-0.019038416,-0.04443941,-0.0815985,-0.13782875,-0.1256742,-0.15911525,-0.18358685,-0.123915456,-0.11086262,-0.08923052,-0.1122204,-0.030057454,-0.04836872,0.019639594
ECG_0055,0,normal,-0.015327089,0.026895465,-0.0071149087,0.08503739,0.12061916,0.1233877,0.19929077,0.11521964,0.12909639,0.10744396,0.09959724,0.12375079,0.10921893,0.013390464,-0.018344507,-0.060964998,-0.01306974,-0.03901415,-0.08879135,-0.13164076,-0.123428576,-0.06373355,-0.0277372,-0.07366027,0.017103612,0.11706163,0.10433486,0.19573848,0.20612532,0.18324046,0.22834899,0.24626319,0.22614308,0.2222175,0.2857909,0.19403598,0.23283125,0.15971698,0.14045598,0.12348742,0.05207528,0.049577296,-0.06600353,-0.026906695,-0.14662096,-0.10750107,-0.097669,-0.12070794,-0.18717061,-0.18450567,-0.16352962,-0.12307552,-0.16763927,-0.07615766,-0.022797002,0.024036968,0.14808993,0.29158452,0.48695016,0.72453654,1.0932013,1.3319423,1.507791,1.5480245,1.4259962,1.1190268,0.8311311,0.48768428,0.31422833,0.1475177,0.083411135,-0.035234977,-0.06913432,-0.05909804,-0.11274165,-0.15374573,-0.045881126,-0.14801241,-0.102102,-0.06589259,-0.03673786,-0.012340062,0.03114548,0.076574385,0.098885916,0.24554022,0.2211496,0.28862053,0.29825187,0.3284523,0.34837478,0.32989338,0.37698412,0.3661266,0.40158945,0.31104687,0.30368844,0.26307923,0.29893413,0.1935348,0.20054184,0.17863148,0.11434663,0.051303603,0.03126468,0.08395212,0.013007449,0.06186691,0.058971044,0.0776315,0.0954722,0.071203336,0.08921105,0.15898319,0.13594604,0.086388156,0.19792674,0.15144166,0.19440717,0.21349879,0.15702961,0.16511227,0.11322746,0.12534732,0.012040237,0.008421299,-0.006165375,-0.06525128,-0.054728378,-0.1271678,-0.07099868,-0.08134589,-0.14097793,-0.12959532,-0.09965331,-0.15331331,-0.13332994,-0.027745755,-0.025341596,-0.006760603
ECG_0056,0,normal,0.0003339906,-0.037966315,0.059803557,0.071503386,0.14542861,0.16554011,0.16390553,0.16195738,0.10108343,0.15230943,0.13539249,0.13016418,0.12842427,-0.016362578,-0.008308586,-0.04851914,-0.047083084,-0.07224223,-0.09263436,-0.058929656,-0.117271125,-0.10008608,-0.074944094,-0.02248575,-0.010114797,0.067055605,0.10589543,0.12745388,0.21286692,0.21398382,0.26900855,0.24427253,0.2539926,0.23443007,0.24037643,0.24472374,0.18813816,0.18836387,0.11684275,0.1294036,0.05263487,0.058090564,-0.002781345,0.0055306945,-0.10718709,-0.14498097,-0.1417828,-0.18091512,-0.18970035,-0.13076922,-0.14299482,-0.14305243,-0.11829015,-0.09367808,0.017371193,0.010462912,0.09266628,0.30875432,0.49672714,0.8437854,1.0734127,1.3859142,1.5576073,1.5180107,1.3611885,1.1424097,0.8317559,0.48870036,0.27300957,0.07322197,0.06439591,-0.026876038,-0.0667497,-0.1416058,-0.1429237,-0.13481925,-0.1425999,-0.112119555,-0.08265695,-0.008204859,-0.045366894,0.026814329,0.011789108,0.03337395,0.12179489,0.13310198,0.22818951,0.24729897,0.24966331,0.39117596,0.34591123,0.32726017,0.4087479,0.3564784,0.3991487,0.32494605,0.30477592,0.3003774,0.2734548,0.24267158,0.18098061,0.16538514,0.14109917,0.09862501,0.06790955,0.014800353,0.068800494,0.05137132,0.043132097,0.10465052,0.03848965,0.14853455,0.11780869,0.14706092,0.14297505,0.11888042,0.17427579,0.19257185,0.20067985,0.16577314,0.09075054,0.08898945,0.17017412,0.04494836,0.08671493,-0.019354854,-0.031833902,-0.040782683,-0.11390078,-0.066440165,-0.13080797,-0.13118629,-0.1574683,-0.12641175,-0.088039674,-0.121635966,-0.042078555,-0.0837862,-0.010638369,0.014707984
ECG_0057,0,normal,-0.03205717,0.04002922,0.065741405,0.06849902,0.12862654,0.14007787,0.14442751,0.1480363,0.14330351,0.12355915,0.120705575,0.07349097,0.14458226,-0.007865756,-0.014196363,-0.041423403,0.008956501,-0.112248324,-0.07283423,-0.08230597,-0.07422063,-0.031762138,-0.007742457,-0.025204627,0.032563433,0.01258969,0.11383293,0.12722965,0.18106246,0.16520768,0.2492753,0.19922696,0.25916696,0.21451838,0.2150986,0.25799876,0.21811572,0.20728761,0.18801697,0.08344693,0.115001194,-0.0114250025,0.01777237,-0.05489805,-0.10047406,-0.08226157,-0.09494774,-0.11191875,-0.1417725,-0.14545703,-0.12706345,-0.11954908,-0.0904406,-0.069640964,-0.0068563684,-0.016288152,0.1283921,0.2433574,0.51150084,0.8318801,1.0749763,1.3643522,1.547836,1.471619,1.3678129,1.1311041,0.7275993,0.5017144,0.33988836,0.17940478,0.057763852,0.0074447067,-0.05543206,-0.07420062,-0.11945024,-0.11700611,-0.14140123,-0.07775013,-0.054514214,-0.034895852,-0.057009645,-0.03526097,0.0749975,0.099939555,0.14222147,0.16202468,0.24051924,0.23815425,0.32731333,0.3804618,0.41096947,0.3976445,0.34034213,0.38425675,0.43063417,0.3208895,0.3192274,0.33243817,0.27417222,0.29402176,0.16168676,0.11983397,0.15545408,0.056731574,0.06628626,0.056189805,0.081904955,0.06853415,0.06925252,0.0542446,0.11777478,0.21998818,0.13921535,0.14052555,0.11589049,0.14976817,0.17205279,0.1664915,0.17991075,0.2250546,0.19394174,0.13047431,0.07236513,0.11784547,0.04243182,-0.043127265,-0.0049873195,-0.028768329,-0.1620722,-0.13894325,-0.13639344,-0.1229765,-0.16491249,-0.17113762,-0.11358838,-0.13174707,-0.0777083,-0.09878379,-0.07413124,0.02269263
ECG_0058,0,normal,0.0075758887,0.061288603,0.049542636,0.07024163,0.15870804,0.09000043,0.18414894,0.18970875,0.17180651,0.113955915,0.092014834,0.086506724,0.026026785,0.005563422,0.022687748,-0.006770666,-0.08374555,-0.052360624,-0.07198279,-0.0444612,-0.06715461,-0.037095003,-0.02990501,0.017721951,-0.011870606,0.06486042,0.10969066,0.14373684,0.19997053,0.23480023,0.24889684,0.2448157,0.23264652,0.28422913,0.25107983,0.19279839,0.19466755,0.12051252,0.14228627,0.100680694,0.052798036,0.08007817,-0.039295264,-0.01890613,-0.0069638123,-0.06837763,-0.124242455,-0.17339885,-0.18908016,-0.1617623,-0.16347948,-0.15024841,-0.11647068,-0.078828365,-0.017583525,-0.0046058036,0.11186299,0.28008264,0.49733523,0.8377149,1.0961663,1.312127,1.5376868,1.5500207,1.3797224,1.0837667,0.8672508,0.49892214,0.3266858,0.15531638,0.06455862,0.032184515,-0.04503602,-0.1076224,-0.07680087,-0.13941348,-0.11752339,-0.15444714,-0.13115944,-0.07475164,-0.033723783,-0.05771947,0.051606912,0.05903947,0.17075458,0.17047471,0.19404066,0.27298674,0.2808044,0.37716356,0.362054,0.37183845,0.3995568,0.3481884,0.3277691,0.35919842,0.2880127,0.25703213,0.28076088,0.23536898,0.14605796,0.13095257,0.09161837,0.14589751,0.09936961,0.045533855,0.06811111,0.009420526,0.035361186,0.069463424,0.094891585,0.09628969,0.1259173,0.13988547,0.14991905,0.16000824,0.16567615,0.18948762,0.19271755,0.1776649,0.12116882,0.10527146,0.12057998,0.12187464,0.048475914,-0.0036823042,-0.01963001,-0.093643576,-0.05002665,-0.1086088,-0.15316354,-0.15001568,-0.16525118,-0.10682326,-0.14147066,-0.11303642,-0.07675815,-0.08766132,-0.027749967,0.0082676215
ECG_0059,0,normal,-0.04662207,0.041195825,0.06414756,0.097993776,0.11895536,0.14346428,0.18672541,0.114708394,0.13573925,0.1545887,0.13093832,0.10659056,0.14748529,0.052838307,0.037273854,-0.0354633,-0.082045674,-0.08207381,-0.06425309,-0.07755295,-0.07213116,-0.07528277,-0.055431418,-0.01707164,0.048477173,0.09373458,0.08067289,0.1739196,0.1671323,0.2298365,0.23137015,0.29709768,0.24217619,0.2566719,0.25878564,0.19713804,0.19829246,0.16481397,0.12581076,0.0934404,0.10339248,0.014583645,0.012381596,-0.030660067,-0.11447446,-0.08512059,-0.16570169,-0.12053404,-0.16343404,-0.14916472,-0.18169785,-0.12499053,-0.07887276,-0.099969916,-0.050354894,0.046166714,0.14671884,0.21184742,0.563662,0.7984788,1.1101065,1.3562285,1.4694808,1.5538924,1.3665205,1.1364865,0.80794513,0.53815985,0.28361273,0.17524654,0.010882934,0.04834586,0.0052532726,-0.041881483,-0.071716264,-0.12301694,-0.087433726,-0.11853993,-0.14676653,-0.031197192,-0.0109016495,-0.0075879246,-6.723676e-05,0.06603632,0.07772957,0.20938607,0.17965005,0.27931753,0.28298065,0.2962941,0.36918876,0.3663748,0.40694845,0.34030867,0.34372428,0.2753186,0.25547245,0.3439782,0.31816617,0.22239885,0.15895799,0.14057317,0.14493755,0.077176265,0.079318315,0.057776522,0.03376089,0.03432033,0.0643402,0.037010882,0.09487654,0.085066095,0.12229791,0.17905426,0.14978062,0.19648674,0.1247031,0.1684186,0.18122375,0.22941405,0.09772817,0.132353,0.15231419,0.05417383,0.037518285,0.018619917,-0.020824967,-0.012565816,-0.075840734,-0.07437343,-0.14388007,-0.16722758,-0.1562118,-0.18094645,-0.120898105,-0.12927373,-0.114123605,-0.05047857,-0.067872725,0.02314962
ECG_0060,0,normal,-0.01434983,0.06838782,0.0537383,0.11305208,0.123273335,0.15800625,0.14990352,0.1001917,0.17626764,0.13195965,0.14019603,0.113515794,0.04167908,0.00697038,0.023006372,-0.03534861,-0.024165422,-0.07799031,-0.0549096,-0.07705865,-0.07558945,-0.08007277,-0.03724451,0.024109658,0.025116445,0.08444799,0.11225094,0.15478745,0.23835626,0.25182074,0.23951124,0.25655764,0.2336623,0.2461244,0.24986976,0.24887522,0.22295481,0.13953374,0.17053464,0.10396888,0.0404223,0.07263171,0.039287727,-0.032185506,-0.05130125,-0.07767219,-0.081423126,-0.11753474,-0.18804894,-0.089121506,-0.11089975,-0.14394772,-0.13757002,-0.06061655,-0.040487684,0.042427942,0.15463251,0.26787955,0.46971655,0.7941968,1.0731972,1.3649175,1.4848416,1.5260853,1.4049248,1.1383466,0.7908584,0.49597073,0.30733556,0.16614585,0.05868956,-0.034386016,-0.052950453,-0.04579181,-0.10382629,-0.16947493,-0.11633412,-0.054335926,-0.13878272,-0.07540149,-0.051556446,-0.0037712627,0.042515855,0.1178215,0.13490744,0.21935143,0.22421965,0.2602085,0.28821597,0.28458259,0.37031153,0.43800876,0.39554983,0.39893925,0.35405278,0.33961785,0.3505421,0.35029325,0.30029666,0.2437744,0.18472737,0.15581821,0.096125096,0.04916291,0.038385347,0.059653204,0.0420655,0.0060228608,0.05442087,0.056764618,0.04613919,0.08810809,0.1088483,0.119036265,0.18262649,0.111805566,0.11889012,0.18262807,0.1832769,0.18384059,0.14035752,0.10770158,0.10839404,0.0644771,0.090435594,-0.0010590693,-0.027955778,0.014723614,-0.09513775,-0.097521916,-0.11369053,-0.12306977,-0.14075547,-0.14035814,-0.13239342,-0.1349772,-0.084204376,-0.0045789485,0.0027592073,0.009152096
ECG_0061,0,normal,0.025675185,0.007539653,0.057705063,0.12253028,0.16250148,0.1125632,0.13209747,0.2155349,0.14889167,0.189291,0.12271627,0.100193806,0.055713248,0.0626909,0.044079047,-0.05730121,-0.06283182,-0.045191925,-0.089498356,-0.10455935,-0.053942434,-0.03574884,-0.057706602,-0.005304927,-0.009511335,0.041648325,0.114585094,0.15199153,0.15764765,0.19428962,0.2051778,0.26377583,0.19568925,0.22096623,0.18469958,0.23592742,0.14639618,0.1737634,0.19041088,0.15683511,0.015854817,0.041492455,-0.03427978,-0.075892,-0.07596915,-0.06384693,-0.10530652,-0.16083102,-0.12706728,-0.21672699,-0.16545783,-0.15337874,-0.10433165,-0.08184579,-0.036384016,0.027286496,0.13300252,0.30107674,0.5076797,0.77409166,1.1012514,1.3853183,1.5084606,1.5318687,1.4183334,1.0870858,0.8686502,0.490844,0.2965017,0.12080917,0.11217211,-0.034121722,-0.07691042,-0.10198493,-0.10711255,-0.13033374,-0.12641673,-0.22153093,-0.0984462,-0.07575904,-0.013609319,0.032624077,0.031057049,0.10810921,0.09931687,0.20405391,0.21057504,0.23517168,0.3027238,0.38110936,0.36746827,0.4212834,0.3593408,0.40977237,0.34687892,0.35370773,0.32750332,0.3098772,0.26318043,0.19744153,0.21008205,0.20147634,0.10121621,0.03755097,0.08716888,0.04822379,0.046892185,0.066791445,0.041848797,0.058251966,0.07832108,0.14330608,0.119378984,0.10046517,0.118950024,0.1730695,0.14458124,0.1356604,0.19945917,0.19224907,0.14548264,0.14404908,0.11425718,0.095797025,0.062045947,-0.06950591,-0.033575192,-0.044001803,-0.10160865,-0.11312054,-0.110558815,-0.14258407,-0.10420251,-0.11236377,-0.13896038,-0.12363877,-0.17947966,-0.07523339,-0.07415932,0.006671441
ECG_0062,0,normal,0.004586413,0.054490604,0.10742054,0.093306705,0.18629895,0.14266273,0.10729863,0.13323146,0.13482143,0.15235396,0.08809305,0.08386912,0.060046766,0.020970618,0.027688181,-0.007011498,-0.017261287,-0.08257504,-0.049536068,-0.1306777,-0.12588023,-0.10526648,-0.043940987,0.024395421,0.008678647,0.054211948,0.1043796,0.16823417,0.17232518,0.19976634,0.19676727,0.23297238,0.29004228,0.2540413,0.2183922,0.26044112,0.18292177,0.21541017,0.18333337,0.108312435,0.025075557,0.10122518,0.0070076403,-0.04981453,-0.04388122,-0.07962658,-0.08396814,-0.15924723,-0.1386641,-0.18499185,-0.12287942,-0.12935036,-0.09825099,-0.080151446,-0.039669547,0.0064811474,0.1560432,0.32956392,0.48649976,0.7992284,1.1021644,1.3607776,1.4793435,1.4946028,1.3600467,1.0559984,0.8567501,0.54204977,0.3059638,0.08360779,-0.008181821,-0.019091465,-0.0027704872,-0.1118218,-0.0840667,-0.13487756,-0.12077295,-0.07921412,-0.11053955,-0.09699638,-0.0022242665,-0.0052810167,0.06942444,0.06306487,0.17456417,0.18924245,0.24079295,0.27466148,0.2931272,0.33904472,0.3487604,0.40517515,0.37571105,0.33344162,0.316061,0.29514632,0.33954197,0.2554873,0.26466078,0.2237143,0.18173158,0.1626788,0.123479426,0.011316042,0.06248054,0.070912294,0.10003375,0.10069984,0.014646055,0.055825766,0.034341216,0.14481002,0.14886259,0.14805302,0.15980922,0.21031155,0.21480384,0.21727084,0.19409348,0.16123728,0.17954049,0.15972055,0.1028944,0.067186974,0.077902846,0.05859123,-0.048842095,-0.06744023,-0.07876696,-0.09960865,-0.14875081,-0.0885062,-0.13677724,-0.13023186,-0.08263693,-0.13116924,-0.09662289,-0.10303799,-0.038731765,-0.04463327
ECG_0063,0,normal,0.022435771,0.046214834,0.057208348,0.091082074,0.14073046,0.1016153,0.15273015,0.17107892,0.09253561,0.15513828,0.06628868,0.08928056,0.029976243,0.07735164,-0.031367913,-0.07575683,-0.04825774,-0.08505537,-0.13075006,-0.07398333,-0.14397368,-0.09993966,-0.061473887,0.012390749,0.06560696,0.10159622,0.106261924,0.07823008,0.19837952,0.25988606,0.27414283,0.2640125,0.21903335,0.23555434,0.29860225,0.18085492,0.16604294,0.20108806,0.12829039,0.071179435,0.115871176,0.046371847,-0.016064676,-0.07447116,-0.01114286,-0.101429224,-0.08137645,-0.11256779,-0.16384535,-0.16480398,-0.09948,-0.08478648,-0.16298875,-0.059267543,-0.03577633,0.0015283879,0.14018269,0.2443849,0.48920614,0.758668,1.0742052,1.3583903,1.4946743,1.5808461,1.3982747,1.1740055,0.80970675,0.514555,0.3596151,0.13197307,0.041185543,0.0025802,-0.09901696,-0.06952363,-0.09248022,-0.08240073,-0.09572879,-0.07665528,-0.103473656,-0.10217334,0.01853318,-0.05244862,-0.006107101,0.10057618,0.18111351,0.18672016,0.25772843,0.21083851,0.2933051,0.28287676,0.38545042,0.32997182,0.3434682,0.39375758,0.39829844,0.34217882,0.338108,0.30616608,0.24919541,0.18677591,0.2006196,0.16791952,0.14555106,0.10196993,0.037134297,0.07886941,0.050783835,0.03562399,0.046701495,0.04560981,0.107989974,0.05667002,0.08867232,0.1276722,0.2032389,0.20052102,0.12923886,0.2230699,0.2208757,0.13649388,0.08088299,0.13307264,0.14228626,0.12546231,0.017778633,0.06122712,-0.093198195,-0.070580445,-0.10181127,-0.079636514,-0.09413074,-0.11638511,-0.18995659,-0.12029479,-0.12013219,-0.16783442,-0.15598035,-0.034298643,-0.03896423,-0.03852091
ECG_0064,0,normal,-0.006244866,0.044536162,0.06303489,0.047535203,0.17445317,0.16581573,0.1365438,0.14124078,0.15678845,0.100701496,0.12619084,0.052886423,0.06276195,-0.0006429031,-0.0301968,0.02312054,-0.050481524,-0.06642209,-0.1459533,-0.10766784,-0.07039233,-0.06302834,-0.10883823,-0.0054617855,0.03773967,0.10702561,0.091203205,0.08378727,0.15675081,0.18285689,0.2592304,0.16862193,0.24126774,0.2940874,0.24080421,0.25024632,0.15122423,0.12475183,0.18434243,0.10966855,0.07313027,-0.0010044175,-0.0015871894,-0.07447604,-0.036958944,-0.018860748,-0.10877806,-0.15842518,-0.22422804,-0.19994967,-0.0962236,-0.15953776,-0.11780632,-0.056101173,0.012328811,0.026540475,0.12019029,0.28702143,0.48437065,0.7654076,1.1015552,1.3660934,1.5890895,1.5468162,1.4180106,1.0880301,0.83026385,0.5093292,0.31872624,0.1699703,0.04803037,0.05319855,-0.019045793,-0.05554511,-0.08705205,-0.067579664,-0.1655392,-0.07454614,-0.12989832,-0.09322341,-0.02792461,0.030348854,0.002080992,0.06824599,0.1352899,0.17544267,0.25337029,0.3737904,0.32087108,0.3170393,0.32314286,0.36663115,0.35359526,0.39236334,0.38000438,0.3330528,0.3805515,0.267969,0.25207528,0.23879194,0.2104345,0.18785393,0.13158521,0.124135315,0.05223605,0.08570166,0.077967145,0.09549271,0.0054874904,0.039102033,0.106018886,0.019672528,0.13323708,0.16932951,0.13753513,0.1559869,0.14623997,0.16688308,0.16561604,0.15122889,0.13439639,0.12710916,0.100120395,0.1339484,0.032077897,0.018992255,-0.043666713,-0.0772268,-0.14042607,-0.16134761,-0.16928977,-0.13950092,-0.11715488,-0.1997733,-0.15187576,-0.15870412,-0.10189825,-0.03316524,-0.046967722,-0.0013909544
ECG_0065,0,normal,0.043657143,0.04735196,0.042717673,0.098862246,0.093059994,0.14830364,0.16206533,0.109078825,0.1512583,0.13106294,0.13285087,0.11774881,0.07920147,0.025318442,0.03134562,-0.052443024,-0.09187396,-0.16850288,-0.087716125,-0.11440418,-0.07229607,-0.12798926,-0.0636327,0.0024321743,-0.0041521755,0.08079045,0.09414946,0.15006508,0.20450868,0.24435276,0.2399039,0.22570372,0.24097726,0.27042222,0.20995022,0.2180148,0.18890166,0.16971067,0.110946685,0.05107376,0.08565432,0.06146411,-0.05837589,-0.029030133,-0.04006957,-0.08281834,-0.1357964,-0.16768168,-0.14578895,-0.14198218,-0.13999523,-0.13406605,-0.13916083,-0.0630803,-0.018014248,0.038552746,0.13566011,0.3352503,0.48446843,0.82106525,1.0671781,1.3938031,1.5621424,1.5248592,1.433305,1.1342397,0.78819096,0.519794,0.3408455,0.17700681,0.014793093,-0.023198942,-0.055779498,-0.10609061,-0.03924664,-0.11347058,-0.12428449,-0.079929106,-0.1111174,-0.046070408,-0.09479836,-0.020257372,0.0681604,0.13072827,0.109165065,0.15433899,0.24477272,0.25202158,0.3002341,0.36538735,0.34571502,0.317426,0.34277022,0.3786355,0.31054103,0.33803305,0.27923995,0.3392306,0.3206125,0.18787116,0.19137561,0.12071453,0.10945085,0.14671202,0.05818864,0.049578078,0.02254939,0.0844918,-0.04235743,0.053033605,0.079948075,0.079381146,0.14438325,0.17359619,0.11246519,0.23169722,0.13576633,0.22118841,0.18488792,0.1566031,0.14424573,0.1342339,0.11486606,0.05011981,0.03688525,-0.014452437,-0.06281171,-0.08405828,-0.12379418,-0.12681127,-0.12010557,-0.14139052,-0.09020975,-0.21248695,-0.12132323,-0.11750478,-0.06949983,-0.043944366,-0.038511004,0.0052140933
ECG_0066,0,normal,-0.022321785,0.05202533,0.009154146,0.11739958,0.11719126,0.12107733,0.13962913,0.14531773,0.18492293,0.23159495,0.15310667,0.075848624,0.08377143,0.054614116,-0.024409102,-0.06407512,-0.054156728,-0.048413053,-0.13396615,-0.11138472,-0.067049146,-0.06760073,-0.0017291293,-0.054016948,0.09730785,0.022372978,0.049985226,0.14928195,0.15262017,0.21460617,0.23491731,0.24425079,0.2294461,0.26429322,0.23106772,0.25646675,0.19506702,0.1438721,0.090593845,0.10146881,0.031955905,-0.007958689,0.011213078,-0.093428016,-0.030199256,-0.09590418,-0.124611564,-0.17041977,-0.12528713,-0.14950289,-0.16345236,-0.12266726,-0.15716484,-0.12482077,-0.065745465,0.0430139,0.13223255,0.31634218,0.4756001,0.79986227,1.0857828,1.3322433,1.5367006,1.5316705,1.3646026,1.1214286,0.8106232,0.526408,0.29448482,0.110166416,0.048777267,-0.04310265,-0.092495054,-0.09808347,-0.08795983,-0.114912085,-0.13836439,-0.13279502,-0.0810866,-0.14819531,-0.020845434,-0.06286822,-0.005773946,0.06819437,0.19746765,0.23135622,0.24894395,0.28140888,0.25242314,0.34379795,0.34556144,0.3518887,0.38644686,0.36420354,0.3925227,0.28886923,0.32325318,0.2636595,0.24336913,0.22875586,0.1501536,0.1544536,0.11236017,0.07279033,0.05807212,0.053522646,0.027790174,0.050318945,0.04719527,0.04797905,0.12901993,0.11167066,0.10699552,0.1419112,0.12402177,0.15578946,0.16886176,0.14512567,0.19201371,0.15654574,0.14586273,0.1181777,0.19738625,0.057845987,-0.018156858,-0.03933021,-0.0035811444,-0.019445349,-0.10974886,-0.07583813,-0.11083212,-0.15069622,-0.15725347,-0.14074725,-0.10907978,-0.10577855,-0.11427419,-0.07066453,0.025876654,0.0075709685
ECG_0067,0,normal,0.026080055,0.04981148,0.07372116,0.09735575,0.14480819,0.15724845,0.15452193,0.12928075,0.15757059,0.1325799,0.10726287,0.17317167,0.018706435,0.06316963,-0.02253441,-0.022315275,0.024799325,-0.10151535,-0.10732808,-0.0902832,-0.10964521,-0.042330742,-0.06025322,0.007944366,-0.013132765,0.014307806,0.10399059,0.103994094,0.232202,0.16987474,0.20599853,0.26253262,0.23712751,0.20576191,0.30178675,0.19330779,0.19459045,0.16653574,0.16253443,0.120502666,0.045228012,0.022765351,-0.011418315,-0.017629132,-0.10761471,-0.040152352,-0.14607179,-0.13963927,-0.18301798,-0.18836051,-0.16910231,-0.1577777,-0.11910898,-0.105129905,-0.0112733105,0.009038566,0.10551584,0.27308375,0.532985,0.7890685,1.0862082,1.3175433,1.4908601,1.4952985,1.4226817,1.1360855,0.7886605,0.5140875,0.28210393,0.12273903,0.060343336,-0.027647309,0.00054984604,-0.053351678,-0.07069622,-0.10033978,-0.1351099,-0.097720906,-0.110625975,-0.027384954,-0.032638002,0.0012230594,0.04050047,0.13583033,0.08935142,0.23618227,0.2221647,0.22852813,0.28572515,0.289571,0.3816478,0.34523997,0.38686278,0.41236335,0.3462832,0.33890474,0.28190184,0.27838174,0.33287892,0.24295506,0.17573093,0.131176,0.11745132,0.09650946,0.059617206,0.07406098,0.022221845,0.021354482,0.066646434,0.031258274,0.103195176,0.09878504,0.06363962,0.14082035,0.10427198,0.18969347,0.17100266,0.23806202,0.21253248,0.13989335,0.09590454,0.11258626,0.07197577,0.13249658,0.04359401,0.036670312,-0.034911152,-0.06492896,-0.09027376,-0.08101044,-0.12373108,-0.17673184,-0.10076467,-0.15495782,-0.14906906,-0.20258255,-0.07493795,-0.062407944,-0.030563481,-0.012050185
ECG_0068,0,normal,-0.017256243,0.022527518,0.079415254,0.11326832,0.110955514,0.16415732,0.1442359,0.13496682,0.15195629,0.09380855,0.1234921,0.046542935,0.034046166,-0.0261465,-0.0019077893,0.022037871,-0.055770602,-0.05333672,-0.015042479,-0.07763611,-0.10718506,-0.08767949,-0.044197593,-0.030662762,0.010000299,0.09807037,0.14164482,0.10164256,0.16210885,0.20184872,0.2551018,0.2844163,0.33577746,0.23734334,0.22811598,0.2410139,0.18001167,0.16858266,0.12877402,0.027982472,0.07372904,0.027069338,0.03352629,-0.039933205,-0.11020748,-0.10843863,-0.18602878,-0.17570433,-0.12915312,-0.15683596,-0.11519421,-0.18766877,-0.11395512,-0.09002633,-0.0034644254,0.052710965,0.15159786,0.3311151,0.4921572,0.82267463,1.0578727,1.3281083,1.5477238,1.4885086,1.4006592,1.123208,0.8466647,0.52923536,0.3085441,0.16459282,0.026654819,-0.040207412,-0.047652304,-0.09174111,-0.12220005,-0.12296401,-0.07459334,-0.12894519,-0.11432158,-0.12751657,-0.04603697,0.013058754,0.061774235,0.08686887,0.16103894,0.20297055,0.26113784,0.30024168,0.3553908,0.3340044,0.32222635,0.39630032,0.40521938,0.4254367,0.40488243,0.40531203,0.33959845,0.29689676,0.21410872,0.22885996,0.16709775,0.15587194,0.12036571,0.10675994,0.069269374,0.086209804,-0.030869361,0.055805918,0.09161527,0.122418985,0.1032835,0.14975995,0.123544976,0.13762125,0.17070885,0.16879678,0.15499337,0.16707228,0.1470285,0.18756545,0.15686849,0.12443071,0.09161302,0.09287613,0.0673169,-0.025247673,-0.06499077,-0.030903632,-0.13054894,-0.097782016,-0.08457254,-0.09643478,-0.12730391,-0.124909066,-0.06784623,-0.18772925,-0.10790001,-0.039983567,-0.04367986,0.037227903
ECG_0069,0,normal,-0.0011803303,0.037567247,0.057280187,0.07841946,0.10147317,0.14382418,0.12336817,0.17868976,0.16560061,0.16757263,0.082642816,0.0418241,0.0647524,0.12137826,0.041331984,-0.04288453,-0.03952294,-0.050816674,-0.12666355,-0.04866901,-0.08925142,-0.07157286,-0.0435038,0.022660282,0.004087444,0.017303651,0.1205488,0.08973959,0.17762083,0.25137508,0.25450194,0.2813947,0.27332896,0.32362357,0.22294064,0.23530075,0.18733457,0.20151556,0.1393779,0.15819743,0.054107565,0.07475396,0.013183544,-0.04107175,-0.056291785,-0.09285773,-0.11261765,-0.14558293,-0.16926596,-0.15946788,-0.1933638,-0.10340355,-0.1437362,-0.08229037,-0.012698532,0.057709984,0.079090744,0.28211737,0.51699215,0.78418267,1.1295211,1.3358804,1.4636701,1.5579605,1.3673636,1.0674124,0.8097538,0.5679354,0.26896507,0.21939474,0.021397857,-0.016410897,-0.09845916,-0.08961416,-0.11399307,-0.1651653,-0.037655316,-0.13051476,-0.114994876,-0.04722216,0.009661263,0.027145354,0.0006528873,0.09003961,0.07592276,0.20808479,0.17869368,0.24661656,0.3081954,0.3524454,0.35421005,0.42196128,0.40349996,0.39767858,0.32956168,0.3979289,0.29691088,0.3421587,0.31632406,0.23499677,0.21463324,0.05703905,0.112880245,0.1256729,0.0999246,0.021567501,0.042013608,-0.025984854,0.067930356,0.009817674,0.115238994,0.1346952,0.104245886,0.15317366,0.14831342,0.17614986,0.1440463,0.20120427,0.13115753,0.11681622,0.15286888,0.12890199,0.116782576,0.058239218,0.1004742,0.013485898,-0.019373769,-0.053621914,-0.05920765,-0.0969261,-0.11981928,-0.1229323,-0.20417853,-0.19977878,-0.13768522,-0.1236276,-0.076575644,-0.06483781,-0.016105302,-0.037333302
ECG_0070,0,normal,-0.00032204558,-0.0066167717,0.07712617,0.037746236,0.12833577,0.09161921,0.13509929,0.17694145,0.15282522,0.08522033,0.096338734,0.04776704,0.01403522,0.037944138,0.02015467,-0.013032962,-0.034179498,-0.07300161,-0.093813606,-0.12194987,-0.09743109,-0.10849289,-0.06957231,-0.009008117,0.023208726,0.16045459,0.07048627,0.14729637,0.14394197,0.20413527,0.22671632,0.27547044,0.24122843,0.24557395,0.2276783,0.18132526,0.1809151,0.16135341,0.14343993,0.12340051,0.062994145,0.024974879,-0.056235038,-0.023905883,-0.09344199,-0.07828197,-0.08380309,-0.14501424,-0.17891763,-0.1499167,-0.1324084,-0.1381276,-0.12360243,-0.058854986,-0.017212534,0.022139393,0.082708314,0.29856414,0.48017997,0.7890524,1.0937335,1.3038663,1.5275738,1.5490867,1.4025908,1.1236897,0.75519353,0.5693311,0.3191933,0.11321529,0.022901414,-0.012084496,-0.04149166,-0.10550136,-0.08521487,-0.17426349,-0.1537039,-0.17758556,-0.12708315,-0.03105092,0.016967684,0.00038996266,0.017535415,0.07697314,0.14656413,0.13414422,0.21057434,0.3137594,0.27692014,0.31662446,0.3624339,0.38488302,0.36305264,0.38064575,0.3846819,0.40579143,0.3172155,0.2887935,0.30148178,0.20314209,0.14394225,0.15703411,0.15101556,0.103439346,0.06927883,0.0147074,0.04907419,0.08710076,0.018517058,0.05897511,0.069700114,0.07828233,0.12591459,0.15083453,0.16781119,0.13958831,0.12908457,0.19040115,0.16521552,0.2268635,0.21306202,0.19495998,0.0804102,0.09480552,0.07003202,0.031418376,-0.036992162,-0.021163983,-0.089280695,-0.11036344,-0.17921482,-0.12566887,-0.15725245,-0.13222998,-0.12835005,-0.11226929,-0.09534135,-0.04184033,-0.039528027,-0.04362137
ECG_0071,0,normal,0.01706896,0.009344765,0.025792573,0.063427486,0.12638643,0.13279362,0.08262463,0.13858394,0.18108076,0.12105127,0.111546256,0.12409814,0.08874265,0.06506678,-0.07983089,0.025754552,-0.03316629,0.0012000101,-0.10908168,-0.1426613,-0.08401214,-0.077113606,-0.024607418,0.020571927,0.024124084,0.06129151,0.12654173,0.14335947,0.17645447,0.24688289,0.27492246,0.28264302,0.24967153,0.18711987,0.23614165,0.2006174,0.19658643,0.15267879,0.14060296,0.07545382,0.03161052,0.069220915,-0.03370037,-0.040087968,-0.04392961,-0.07326654,-0.09945084,-0.1302908,-0.12649819,-0.108223096,-0.13011877,-0.18377808,-0.12253727,-0.05486985,-0.050952762,0.081131265,0.1304349,0.28743026,0.5369421,0.7771367,1.0944872,1.3875084,1.4809732,1.5250918,1.4083508,1.1221366,0.85852915,0.48374096,0.25616258,0.17240547,0.07250852,-0.024818722,-0.049873356,-0.06850626,-0.13439652,-0.14168593,-0.11673834,-0.08853196,-0.1351397,-0.08223166,-0.052093484,0.005891022,0.03642734,0.06724583,0.1698209,0.16485591,0.21898644,0.22296767,0.28688267,0.35457748,0.37165615,0.39437428,0.39833224,0.44096825,0.34400794,0.29836515,0.28948626,0.26892287,0.2264284,0.22242689,0.2212525,0.19571641,0.13385957,0.1568461,0.061498106,0.00918363,0.08242061,-0.00505172,0.03289048,0.08192089,0.07825322,0.09348488,0.083053194,0.13721131,0.18493626,0.16949165,0.15355732,0.14510334,0.15610525,0.18348414,0.1668348,0.11122408,0.042290743,0.09032483,0.016972229,0.029339623,-0.049043514,-0.08917595,-0.08469979,-0.043475643,-0.11060892,-0.14092524,-0.13867454,-0.19870684,-0.16907367,-0.19302526,-0.04207372,-0.019616744,-0.021776695,0.004088008
ECG_0072,0,normal,-0.04654741,0.027035931,0.119292185,0.098037265,0.10094707,0.08294707,0.18801428,0.1479911,0.09330181,0.106862165,0.07818441,0.08885609,0.07109814,0.01931773,0.026657118,-0.023887072,-0.02038893,-0.083360106,0.0057478715,-0.10669245,-0.1113286,-0.09964145,-0.05054556,-0.06326201,0.035579793,0.011353639,0.115710266,0.11051178,0.17521513,0.23390505,0.30625024,0.217784,0.2502089,0.22960079,0.21449172,0.2019076,0.22520018,0.15816984,0.20870455,0.11911146,0.039731722,0.021539012,-0.028666051,-0.016095858,-0.12172845,-0.14092422,-0.14104266,-0.11888839,-0.11122649,-0.107999474,-0.1269754,-0.13114868,-0.0828425,-0.11009597,-0.0874796,0.04562721,0.10215995,0.2829136,0.5067886,0.79006577,1.1173326,1.3854969,1.5309913,1.5203903,1.3867091,1.1022823,0.8086163,0.6095639,0.31232834,0.16282222,0.025369886,0.01158098,-0.039077014,-0.067841895,-0.103533894,-0.089454785,-0.08427957,-0.10716167,-0.10359937,-0.049456105,-0.071890146,-0.02818656,0.03508928,0.031381626,0.1571918,0.15214622,0.21360458,0.2643142,0.30947006,0.3287856,0.36001697,0.37459993,0.36839184,0.355141,0.39888793,0.28381568,0.31483138,0.27596545,0.26822194,0.17598829,0.16867928,0.14645585,0.15083252,0.102573484,0.03668465,0.0435349,0.07740681,0.014082866,0.053181242,0.06604391,0.069751166,0.18008602,0.10609495,0.15102834,0.13183734,0.18472505,0.20458771,0.16489057,0.17875203,0.14485574,0.12219462,0.16634315,0.091993496,0.005316072,0.096864134,-0.015395111,-0.033751413,-0.010311735,-0.09354721,-0.11910672,-0.169925,-0.19405684,-0.15443169,-0.13528906,-0.12623769,-0.13213523,-0.093362205,-0.120554626,-0.019756239,0.00487673
